292;14174
292;14176
292;14178
293;14180
292;14182
293;14184
293;14186
292;14188
293;14190
292;14192
292;14194
292;14196
292;14198
293;14200
292;14202
292;14204
293;14206
293;14208
293;14210
293;14212
294;14214
295;14216
295;14218
295;14220
296;14222
296;14224
296;14226
297;14228
297;14230
296;14232
298;14234
299;14236
300;14238
300;14240
302;14242
302;14244
303;14246
303;14248
303;14251
303;14253
304;14255
304;14257
304;14259
305;14261
304;14263
305;14265
304;14267
304;14269
304;14271
304;14273
304;14275
303;14277
303;14279
303;14281
301;14283
301;14285
300;14287
299;14289
299;14291
298;14294
297;14296
297;14298
296;14300
296;14302
296;14304
295;14306
295;14308
295;14310
295;14312
294;14314
294;14316
294;14318
293;14320
293;14322
292;14324
291;14326
290;14328
289;14330
289;14332
289;14334
289;14336
289;14338
289;14340
290;14342
289;14344
289;14346
289;14348
288;14350
287;14352
287;14354
287;14356
287;14358
286;14360
286;14362
286;14364
286;14366
288;14368
289;14370
292;14372
296;14374
301;14376
305;14379
310;14381
315;14383
320;14385
324;14387
327;14389
328;14391
328;14393
325;14395
322;14397
319;14399
315;14401
312;14403
308;14405
305;14407
303;14409
301;14411
299;14413
299;14415
297;14417
297;14419
297;14422
296;14424
295;14426
294;14428
293;14430
293;14432
293;14434
292;14436
293;14438
292;14440
292;14442
292;14444
291;14446
291;14448
290;14450
291;14452
290;14454
290;14456
289;14458
289;14460
288;14462
289;14464
289;14466
289;14468
289;14470
290;14472
290;14474
290;14476
290;14478
290;14480
290;14482
291;14484
290;14486
290;14488
290;14490
290;14492
290;14494
290;14496
289;14498
289;14500
290;14502
290;14504
291;14507
290;14509
291;14511
291;14513
291;14515
292;14517
292;14519
293;14521
293;14523
294;14525
295;14527
295;14529
295;14531
295;14533
296;14535
296;14537
297;14539
297;14541
297;14543
298;14545
298;14547
298;14550
298;14552
299;14554
299;14556
299;14558
300;14560
301;14562
301;14564
300;14566
301;14568
301;14570
301;14572
302;14574
303;14576
303;14578
303;14580
304;14582
304;14584
305;14586
305;14588
305;14590
305;14592
306;14594
306;14596
307;14598
308;14600
308;14602
308;14604
308;14606
308;14608
309;14610
309;14612
308;14614
308;14616
308;14618
309;14620
309;14622
309;14624
309;14626
309;14628
308;14630
309;14632
308;14635
309;14637
308;14639
308;14641
308;14643
307;14645
306;14647
306;14649
305;14651
304;14653
303;14655
302;14657
302;14659
301;14661
301;14663
301;14665
300;14667
300;14669
299;14671
298;14673
298;14675
297;14678
297;14680
296;14682
295;14684
295;14686
295;14688
295;14690
295;14692
296;14694
295;14696
295;14698
296;14700
295;14702
296;14704
295;14706
296;14708
295;14710
294;14712
295;14714
294;14716
295;14718
295;14720
295;14722
295;14724
295;14726
296;14728
295;14730
295;14732
295;14734
295;14736
295;14738
295;14740
295;14742
294;14744
294;14746
293;14748
293;14750
292;14752
293;14754
292;14756
292;14758
293;14760
293;14763
294;14765
294;14767
294;14769
294;14771
294;14773
295;14775
294;14777
294;14779
294;14781
295;14783
294;14785
295;14787
294;14789
294;14791
295;14793
294;14795
294;14797
294;14799
294;14801
295;14803
295;14806
294;14808
294;14810
294;14812
294;14814
294;14816
294;14818
295;14820
295;14822
296;14824
296;14826
296;14828
296;14830
296;14832
296;14834
296;14836
297;14838
297;14840
298;14842
299;14844
299;14846
300;14848
299;14850
300;14852
301;14854
302;14856
302;14858
303;14860
303;14862
304;14864
305;14866
305;14868
306;14870
306;14872
307;14874
307;14876
306;14878
306;14880
306;14882
306;14884
306;14886
305;14888
304;14891
304;14893
303;14895
302;14897
302;14899
301;14901
300;14903
299;14905
298;14907
297;14909
297;14911
296;14913
295;14915
294;14917
293;14919
293;14921
292;14923
292;14925
292;14927
292;14929
291;14931
291;14934
290;14936
291;14938
291;14940
291;14942
289;14944
290;14946
290;14948
290;14950
289;14952
290;14954
289;14956
290;14958
290;14960
289;14962
288;14964
288;14966
287;14968
286;14970
286;14972
285;14974
284;14976
284;14978
284;14980
285;14982
288;14984
290;14986
295;14988
299;14990
304;14992
309;14994
313;14996
318;14998
322;15000
325;15002
327;15004
327;15006
325;15008
322;15010
319;15012
315;15014
311;15016
308;15019
305;15021
304;15023
301;15025
300;15027
299;15029
298;15031
297;15033
296;15035
296;15037
295;15039
295;15041
294;15043
294;15045
293;15047
293;15049
292;15051
291;15053
291;15055
289;15057
290;15059
290;15062
290;15064
290;15066
290;15068
290;15070
290;15072
290;15074
290;15076
290;15078
290;15080
290;15082
290;15084
290;15086
291;15088
290;15090
290;15092
290;15094
290;15096
290;15098
290;15100
290;15102
291;15104
290;15106
290;15108
291;15110
290;15112
290;15114
290;15116
290;15118
290;15120
290;15122
290;15124
290;15126
289;15128
290;15130
290;15132
291;15134
291;15136
291;15138
292;15140
292;15142
292;15144
294;15147
294;15149
295;15151
296;15153
296;15155
297;15157
297;15159
297;15161
299;15163
299;15165
299;15167
299;15169
300;15171
300;15173
300;15175
301;15177
301;15179
301;15181
302;15183
302;15185
302;15187
303;15190
302;15192
303;15194
303;15196
302;15198
303;15200
303;15202
304;15204
304;15206
304;15208
304;15210
304;15212
304;15214
303;15216
303;15218
303;15220
305;15222
305;15224
305;15226
306;15228
306;15230
306;15232
307;15234
307;15236
307;15238
307;15240
307;15242
308;15244
308;15246
308;15248
307;15250
307;15252
307;15254
306;15256
306;15258
305;15260
305;15262
305;15264
304;15266
304;15268
303;15270
302;15272
301;15275
300;15277
300;15279
299;15281
298;15283
297;15285
297;15287
295;15289
295;15291
294;15293
295;15295
295;15297
295;15299
295;15301
296;15303
296;15305
296;15307
296;15309
296;15311
295;15313
296;15315
295;15318
295;15320
295;15322
294;15324
294;15326
294;15328
294;15330
295;15332
295;15334
295;15336
295;15338
295;15340
295;15342
294;15344
294;15346
294;15348
293;15350
293;15352
293;15354
293;15356
293;15358
294;15360
294;15362
294;15364
295;15366
295;15368
295;15370
295;15372
295;15374
295;15376
296;15378
295;15380
296;15382
296;15384
296;15386
296;15388
296;15390
296;15392
296;15394
296;15396
295;15398
295;15400
294;15403
295;15405
294;15407
293;15409
294;15411
293;15413
294;15415
293;15417
293;15419
293;15421
293;15423
293;15425
293;15427
293;15429
293;15431
293;15433
293;15435
294;15437
294;15439
295;15441
295;15443
296;15446
297;15448
297;15450
298;15452
299;15454
299;15456
300;15458
299;15460
301;15462
302;15464
302;15466
303;15468
304;15470
305;15472
305;15474
306;15476
306;15478
308;15480
308;15482
308;15484
308;15486
308;15488
308;15490
307;15492
306;15494
306;15496
305;15498
305;15500
305;15502
304;15504
304;15506
303;15508
302;15510
302;15512
300;15514
300;15516
299;15518
298;15520
298;15522
298;15524
297;15526
297;15528
296;15531
296;15533
295;15535
295;15537
294;15539
294;15541
294;15543
294;15545
293;15547
294;15549
293;15551
292;15553
292;15555
292;15557
292;15559
291;15561
291;15563
291;15565
291;15567
290;15569
290;15571
289;15574
288;15576
286;15578
285;15580
285;15582
284;15584
284;15586
284;15588
283;15590
283;15592
283;15594
283;15596
285;15598
287;15600
291;15602
296;15604
301;15606
307;15608
312;15610
317;15612
322;15614
324;15616
327;15618
329;15620
329;15622
327;15624
325;15626
321;15628
318;15630
313;15632
310;15634
307;15636
305;15638
303;15640
302;15642
301;15644
300;15646
299;15648
298;15650
296;15652
295;15654
294;15656
294;15659
294;15661
293;15663
292;15665
292;15667
291;15669
291;15671
291;15673
291;15675
290;15677
291;15679
291;15681
291;15683
291;15685
291;15687
291;15689
290;15691
290;15693
290;15695
290;15697
290;15699
290;15702
290;15704
290;15706
291;15708
291;15710
291;15712
291;15714
290;15716
290;15718
290;15720
290;15722
290;15724
290;15726
291;15728
291;15730
291;15732
291;15734
292;15736
292;15738
292;15740
292;15742
293;15744
292;15746
293;15748
293;15750
292;15752
292;15754
292;15756
292;15758
293;15760
294;15762
294;15764
295;15766
295;15768
295;15770
295;15772
296;15774
296;15776
297;15778
297;15780
298;15782
299;15784
299;15787
300;15789
300;15791
301;15793
301;15795
301;15797
302;15799
302;15801
302;15803
303;15805
303;15807
303;15809
304;15811
304;15813
304;15815
304;15817
304;15819
304;15821
305;15823
305;15825
305;15827
305;15830
305;15832
305;15834
305;15836
304;15838
304;15840
304;15842
305;15844
305;15846
306;15848
306;15850
306;15852
306;15854
306;15856
306;15858
306;15860
306;15862
306;15864
306;15866
306;15868
306;15870
306;15872
306;15874
305;15876
305;15878
305;15880
304;15882
304;15884
303;15886
303;15888
303;15890
302;15892
301;15894
301;15896
300;15898
299;15900
299;15902
298;15904
298;15906
297;15908
296;15910
296;15912
295;15915
295;15917
295;15919
294;15921
295;15923
296;15925
296;15927
296;15929
296;15931
296;15933
296;15935
296;15937
296;15939
296;15941
296;15943
296;15945
296;15947
296;15949
296;15951
296;15953
295;15955
296;15958
296;15960
295;15962
296;15964
296;15966
296;15968
296;15970
297;15972
296;15974
296;15976
296;15978
296;15980
296;15982
296;15984
295;15986
295;15988
295;15990
295;15992
295;15994
295;15996
294;15998
294;16000
295;16002
295;16004
295;16006
295;16008
295;16010
295;16012
295;16014
295;16016
295;16018
295;16020
295;16022
294;16024
295;16026
295;16028
295;16030
295;16032
294;16034
294;16036
294;16038
294;16040
294;16043
294;16045
294;16047
295;16049
295;16051
294;16053
294;16055
293;16057
293;16059
293;16061
293;16063
293;16065
293;16067
295;16069
295;16071
295;16073
296;16075
296;16077
297;16079
298;16081
298;16083
298;16086
299;16088
298;16090
299;16092
299;16094
300;16096
301;16098
302;16100
303;16102
304;16104
304;16106
305;16108
306;16110
306;16112
307;16114
307;16116
308;16118
309;16120
309;16122
309;16124
309;16126
308;16128
308;16130
307;16132
306;16134
306;16136
305;16138
305;16140
305;16142
304;16144
304;16146
304;16148
302;16150
302;16152
301;16154
300;16156
299;16158
299;16160
298;16162
298;16164
297;16166
297;16168
297;16171
296;16173
295;16175
295;16177
294;16179
294;16181
294;16183
294;16185
294;16187
294;16189
294;16191
293;16193
293;16195
293;16197
293;16199
293;16201
293;16203
293;16205
293;16207
292;16209
291;16211
291;16214
289;16216
289;16218
288;16220
287;16222
287;16224
286;16226
286;16228
287;16230
288;16232
290;16234
294;16236
298;16238
303;16240
307;16242
312;16244
317;16246
322;16248
325;16250
327;16252
328;16254
327;16256
325;16258
322;16260
318;16262
315;16264
311;16266
308;16268
305;16270
303;16272
300;16274
298;16276
296;16278
295;16280
294;16282
294;16284
293;16286
293;16288
293;16290
293;16292
293;16294
292;16296
292;16299
292;16301
292;16303
292;16305
291;16307
291;16309
291;16311
291;16313
291;16315
291;16317
290;16319
291;16321
290;16323
290;16325
291;16327
290;16329
290;16331
289;16333
289;16335
289;16337
288;16339
289;16342
290;16344
291;16346
291;16348
292;16350
292;16352
291;16354
291;16356
291;16358
292;16360
292;16362
293;16364
294;16366
295;16368
295;16370
294;16372
295;16374
295;16376
295;16378
296;16380
296;16382
296;16384
296;16386
296;16388
297;16390
297;16392
297;16394
298;16396
297;16398
297;16400
297;16402
298;16404
299;16406
299;16408
299;16410
300;16412
300;16414
301;16416
301;16418
301;16420
302;16422
303;16424
303;16427
304;16429
304;16431
304;16433
305;16435
305;16437
306;16439
307;16441
307;16443
307;16445
308;16447
308;16449
308;16451
308;16453
308;16455
308;16457
308;16459
309;16461
309;16463
309;16465
310;16467
310;16470
310;16472
310;16474
310;16476
310;16478
311;16480
310;16482
310;16484
311;16486
311;16488
311;16490
311;16492
311;16494
311;16496
311;16498
311;16500
310;16502
310;16504
310;16506
309;16508
308;16510
308;16512
307;16514
307;16516
306;16518
305;16520
304;16522
303;16524
303;16526
302;16528
302;16530
302;16532
302;16534
301;16536
301;16538
300;16540
300;16542
299;16544
299;16546
299;16548
298;16550
297;16552
297;16555
297;16557
296;16559
296;16561
296;16563
297;16565
296;16567
296;16569
296;16571
296;16573
296;16575
296;16577
295;16579
295;16581
296;16583
295;16585
295;16587
296;16589
296;16591
296;16593
295;16595
295;16598
295;16600
295;16602
295;16604
295;16606
295;16608
295;16610
295;16612
295;16614
295;16616
294;16618
294;16620
294;16622
293;16624
293;16626
293;16628
292;16630
293;16632
292;16634
292;16636
292;16638
291;16640
292;16642
292;16644
292;16646
292;16648
293;16650
293;16652
293;16654
293;16656
293;16658
293;16660
292;16662
293;16664
293;16666
294;16668
294;16670
295;16672
295;16674
295;16676
295;16678
295;16680
295;16683
296;16685
296;16687
296;16689
296;16691
296;16693
297;16695
297;16697
298;16699
299;16701
300;16703
302;16705
302;16707
303;16709
303;16711
303;16713
304;16715
305;16717
305;16719
305;16721
305;16723
305;16726
305;16728
304;16730
304;16732
304;16734
303;16736
302;16738
301;16740
301;16742
300;16744
299;16746
299;16748
298;16750
298;16752
298;16754
297;16756
296;16758
296;16760
295;16762
294;16764
294;16766
294;16768
293;16770
292;16772
291;16774
291;16776
291;16778
290;16780
290;16782
289;16784
290;16786
290;16788
290;16790
290;16792
290;16794
290;16796
290;16798
290;16800
290;16802
289;16804
289;16806
289;16808
289;16811
288;16813
287;16815
287;16817
286;16819
287;16821
286;16823
287;16825
288;16827
289;16829
292;16831
296;16833
300;16835
304;16837
309;16839
314;16841
318;16843
323;16845
326;16847
327;16849
327;16851
325;16854
322;16856
318;16858
316;16860
312;16862
309;16864
306;16866
303;16868
300;16870
298;16872
296;16874
294;16876
293;16878
292;16880
291;16882
291;16884
290;16886
290;16888
289;16890
289;16892
288;16894
288;16896
288;16898
287;16900
287;16902
287;16904
288;16906
288;16908
288;16910
288;16912
288;16914
288;16916
288;16918
289;16920
288;16922
289;16924
288;16926
289;16928
289;16930
288;16932
289;16934
289;16936
290;16939
290;16941
291;16943
291;16945
292;16947
292;16949
292;16951
292;16953
292;16955
292;16957
292;16959
292;16961
292;16963
293;16965
293;16967
293;16969
293;16971
294;16973
294;16975
294;16977
295;16979
294;16982
295;16984
295;16986
295;16988
296;16990
296;16992
296;16994
296;16996
296;16998
297;17000
297;17002
298;17004
299;17006
299;17008
300;17010
301;17012
301;17014
301;17016
301;17018
302;17020
302;17022
302;17024
303;17026
304;17028
304;17030
306;17032
305;17034
305;17036
306;17038
306;17040
306;17042
307;17044
307;17046
308;17048
309;17050
309;17052
309;17054
309;17056
309;17058
309;17060
309;17062
309;17064
310;17067
310;17069
310;17071
310;17073
310;17075
310;17077
310;17079
310;17081
310;17083
310;17085
310;17087
309;17089
309;17091
309;17093
309;17095
308;17097
308;17099
308;17101
307;17103
306;17105
306;17107
305;17110
305;17112
305;17114
304;17116
304;17118
303;17120
303;17122
302;17124
301;17126
301;17128
301;17130
300;17132
299;17134
299;17136
298;17138
298;17140
297;17142
297;17144
296;17146
296;17148
296;17150
295;17152
295;17154
295;17156
295;17158
294;17160
294;17162
294;17164
293;17166
293;17168
293;17170
293;17172
292;17174
292;17176
292;17178
292;17180
293;17182
293;17184
294;17186
293;17188
293;17190
293;17192
293;17195
292;17197
293;17199
293;17201
292;17203
293;17205
292;17207
293;17209
293;17211
292;17213
293;17215
293;17217
294;17219
294;17221
294;17223
294;17225
295;17227
294;17229
294;17231
295;17233
294;17235
295;17238
295;17240
295;17242
295;17244
296;17246
296;17248
296;17250
297;17252
297;17254
298;17256
298;17258
298;17260
298;17262
299;17264
298;17266
299;17268
299;17270
299;17272
300;17274
300;17276
301;17278
301;17280
301;17282
301;17284
301;17286
302;17288
301;17290
302;17292
301;17294
300;17296
300;17298
299;17300
299;17302
298;17304
297;17306
297;17308
297;17310
296;17312
296;17314
295;17316
295;17318
294;17320
294;17323
293;17325
294;17327
293;17329
293;17331
293;17333
292;17335
292;17337
292;17339
291;17341
291;17343
290;17345
290;17347
290;17349
289;17351
289;17353
289;17355
289;17357
289;17359
289;17361
288;17363
288;17366
287;17368
287;17370
287;17372
287;17374
286;17376
286;17378
285;17380
285;17382
284;17384
285;17386
286;17388
288;17390
291;17392
294;17394
298;17396
302;17398
306;17400
310;17402
315;17404
319;17406
321;17408
325;17410
326;17412
326;17414
324;17416
322;17418
320;17420
318;17422
315;17424
312;17426
309;17428
306;17430
303;17432
300;17434
298;17436
297;17438
295;17440
294;17442
294;17444
293;17446
292;17448
292;17451
291;17453
290;17455
290;17457
289;17459
289;17461
288;17463
288;17465
288;17467
288;17469
288;17471
289;17473
288;17475
289;17477
288;17479
288;17481
289;17483
289;17485
289;17487
289;17489
289;17491
289;17494
289;17496
289;17498
289;17500
289;17502
289;17504
290;17506
290;17508
290;17510
290;17512
290;17514
290;17516
290;17518
290;17520
290;17522
291;17524
291;17526
291;17528
292;17530
292;17532
292;17534
293;17536
293;17538
293;17540
293;17542
293;17544
294;17546
294;17548
295;17550
295;17552
296;17554
296;17556
297;17558
297;17560
298;17562
299;17564
299;17566
299;17568
300;17570
300;17572
300;17574
300;17576
301;17579
301;17581
302;17583
302;17585
303;17587
303;17589
304;17591
304;17593
304;17595
305;17597
305;17599
305;17601
306;17603
306;17605
307;17607
307;17609
307;17611
308;17613
307;17615
308;17617
308;17619
308;17622
308;17624
308;17626
308;17628
309;17630
309;17632
309;17634
309;17636
309;17638
309;17640
309;17642
309;17644
309;17646
310;17648
310;17650
310;17652
309;17654
309;17656
309;17658
308;17660
308;17662
308;17664
307;17666
306;17668
306;17670
305;17672
305;17674
304;17676
303;17678
302;17680
302;17682
300;17684
300;17686
299;17688
298;17690
298;17692
297;17694
297;17696
297;17698
296;17700
295;17702
294;17704
294;17707
294;17709
294;17711
294;17713
294;17715
294;17717
294;17719
294;17721
294;17723
294;17725
294;17727
294;17729
294;17731
294;17733
294;17735
294;17737
294;17739
293;17741
294;17743
293;17745
294;17747
294;17750
294;17752
294;17754
294;17756
294;17758
294;17760
294;17762
293;17764
294;17766
293;17768
293;17770
293;17772
293;17774
293;17776
294;17778
294;17780
294;17782
295;17784
296;17786
296;17788
297;17790
297;17792
296;17794
297;17796
297;17798
297;17800
298;17802
298;17804
299;17806
300;17808
301;17810
302;17812
303;17814
303;17816
304;17818
303;17820
303;17822
304;17824
304;17826
304;17828
304;17830
304;17832
304;17835
303;17837
302;17839
302;17841
302;17843
302;17845
301;17847
300;17849
300;17851
299;17853
298;17855
297;17857
297;17859
296;17861
295;17863
295;17865
294;17867
293;17869
293;17871
292;17873
291;17875
290;17878
290;17880
290;17882
289;17884
289;17886
289;17888
289;17890
289;17892
289;17894
289;17896
289;17898
289;17900
289;17902
289;17904
289;17906
289;17908
289;17910
289;17912
289;17914
288;17916
288;17918
287;17920
287;17922
286;17924
286;17926
285;17928
285;17930
285;17932
285;17934
285;17936
286;17938
288;17940
291;17942
295;17944
299;17946
305;17948
310;17950
315;17952
319;17954
322;17956
324;17958
324;17960
322;17963
320;17965
317;17967
314;17969
311;17971
308;17973
305;17975
302;17977
299;17979
297;17981
295;17983
294;17985
293;17987
292;17989
292;17991
292;17993
291;17995
291;17997
291;17999
290;18001
290;18003
290;18006
290;18008
289;18010
289;18012
289;18014
288;18016
288;18018
287;18020
287;18022
286;18024
287;18026
287;18028
288;18030
288;18032
287;18034
288;18036
288;18038
287;18040
287;18042
287;18044
287;18046
288;18048
288;18050
288;18052
288;18054
288;18056
289;18058
289;18060
289;18062
289;18064
289;18066
289;18068
290;18070
291;18072
291;18074
291;18076
292;18078
292;18080
292;18082
292;18084
292;18086
292;18088
293;18091
293;18093
294;18095
295;18097
295;18099
295;18101
296;18103
296;18105
296;18107
297;18109
298;18111
298;18113
298;18115
298;18117
299;18119
299;18121
299;18123
300;18125
300;18127
300;18129
301;18131
301;18134
301;18136
301;18138
301;18140
302;18142
302;18144
302;18146
303;18148
303;18150
303;18152
304;18154
304;18156
305;18158
305;18160
306;18162
306;18164
306;18166
307;18168
307;18170
308;18172
308;18174
308;18176
308;18178
309;18180
309;18182
309;18184
309;18186
309;18188
309;18190
309;18192
309;18194
309;18196
308;18198
308;18200
307;18202
307;18204
306;18206
306;18208
305;18210
305;18212
305;18214
304;18216
303;18219
303;18221
302;18223
301;18225
301;18227
300;18229
299;18231
299;18233
298;18235
297;18237
297;18239
297;18241
297;18243
296;18245
297;18247
296;18249
296;18251
295;18253
294;18255
294;18257
293;18259
293;18262
293;18264
292;18266
293;18268
293;18270
293;18272
293;18274
292;18276
293;18278
292;18280
293;18282
293;18284
293;18286
294;18288
294;18290
295;18292
295;18294
295;18296
294;18298
294;18300
294;18302
294;18304
294;18306
294;18308
294;18310
295;18312
294;18314
295;18316
294;18318
294;18320
295;18322
295;18324
295;18326
296;18328
297;18330
297;18332
297;18334
297;18336
297;18338
297;18340
297;18342
298;18344
299;18347
300;18349
301;18351
301;18353
301;18355
302;18357
303;18359
304;18361
305;18363
305;18365
306;18367
306;18369
306;18371
307;18373
307;18375
307;18377
307;18379
306;18381
305;18383
305;18385
304;18387
304;18390
303;18392
302;18394
302;18396
300;18398
299;18400
299;18402
297;18404
297;18406
295;18408
294;18410
293;18412
293;18414
292;18416
291;18418
290;18420
290;18422
289;18424
289;18426
289;18428
289;18430
289;18432
289;18434
288;18436
288;18438
288;18440
288;18442
288;18444
288;18446
288;18448
288;18450
288;18452
288;18454
288;18456
287;18458
287;18460
287;18462
286;18464
285;18466
285;18468
284;18470
283;18472
283;18475
282;18477
282;18479
282;18481
282;18483
283;18485
285;18487
289;18489
293;18491
298;18493
304;18495
308;18497
313;18499
317;18501
320;18503
322;18505
322;18507
322;18509
319;18511
316;18513
312;18515
309;18518
305;18520
303;18522
300;18524
299;18526
297;18528
296;18530
296;18532
294;18534
294;18536
293;18538
293;18540
293;18542
292;18544
292;18546
291;18548
291;18550
290;18552
290;18554
289;18556
289;18558
289;18560
289;18562
288;18564
288;18566
288;18568
288;18570
288;18572
288;18574
287;18576
287;18578
287;18580
287;18582
286;18584
286;18586
286;18588
286;18590
287;18592
288;18594
288;18596
289;18598
289;18600
289;18603
289;18605
290;18607
290;18609
290;18611
290;18613
291;18615
290;18617
291;18619
291;18621
291;18623
291;18625
291;18627
292;18629
292;18631
292;18633
293;18635
292;18637
292;18639
292;18641
292;18643
291;18646
291;18648
292;18650
293;18652
293;18654
295;18656
295;18658
295;18660
296;18662
296;18664
297;18666
298;18668
298;18670
299;18672
299;18674
300;18676
300;18678
300;18680
300;18682
301;18684
301;18686
302;18688
303;18690
303;18692
304;18694
305;18696
305;18698
305;18700
305;18702
305;18704
305;18706
305;18708
306;18710
306;18712
306;18714
306;18716
306;18718
306;18720
307;18722
307;18724
308;18726
307;18728
307;18731
308;18733
307;18735
307;18737
308;18739
307;18741
307;18743
307;18745
306;18747
306;18749
306;18751
305;18753
305;18755
304;18757
304;18759
304;18761
302;18763
302;18765
301;18767
301;18769
301;18771
300;18774
300;18776
300;18778
299;18780
299;18782
298;18784
298;18786
298;18788
297;18790
297;18792
297;18794
296;18796
296;18798
296;18800
295;18802
295;18804
295;18806
295;18808
295;18810
295;18812
295;18814
295;18816
295;18818
295;18820
294;18822
294;18824
294;18826
294;18828
294;18830
294;18832
294;18834
294;18836
293;18838
293;18840
294;18842
294;18844
294;18846
293;18848
293;18850
293;18852
293;18854
293;18856
294;18859
295;18861
295;18863
295;18865
295;18867
295;18869
295;18871
296;18873
295;18875
295;18877
295;18879
295;18881
295;18883
295;18885
295;18887
295;18889
296;18891
296;18893
296;18895
296;18897
296;18899
296;18902
296;18904
296;18906
297;18908
296;18910
296;18912
297;18914
297;18916
297;18918
297;18920
297;18922
297;18924
297;18926
297;18928
298;18930
298;18932
299;18934
300;18936
302;18938
303;18940
304;18942
304;18944
305;18946
305;18948
306;18950
306;18952
307;18954
307;18956
307;18958
307;18960
307;18962
307;18964
306;18966
306;18968
305;18970
305;18972
304;18974
303;18976
302;18978
301;18980
300;18982
299;18984
298;18987
297;18989
296;18991
296;18993
295;18995
295;18997
293;18999
293;19001
292;19003
292;19005
291;19007
291;19009
290;19011
291;19013
290;19015
290;19017
290;19019
289;19021
288;19023
288;19025
288;19027
289;19030
289;19032
288;19034
289;19036
288;19038
288;19040
288;19042
287;19044
287;19046
287;19048
286;19050
286;19052
285;19054
284;19056
284;19058
283;19060
282;19062
283;19064
283;19066
284;19068
287;19070
289;19072
293;19074
299;19076
305;19078
309;19080
314;19082
319;19084
323;19086
326;19088
326;19090
326;19092
324;19094
320;19096
317;19098
313;19100
310;19102
307;19104
305;19106
303;19108
302;19110
301;19112
300;19115
299;19117
298;19119
297;19121
297;19123
296;19125
295;19127
295;19129
294;19131
294;19133
293;19135
292;19137
291;19139
290;19141
290;19143
289;19145
289;19147
289;19149
289;19151
289;19153
289;19155
288;19158
288;19160
288;19162
288;19164
288;19166
287;19168
288;19170
288;19172
288;19174
288;19176
288;19178
288;19180
288;19182
288;19184
288;19186
288;19188
288;19190
288;19192
288;19194
288;19196
288;19198
289;19200
289;19202
290;19204
290;19206
291;19208
292;19210
292;19212
292;19214
292;19216
292;19218
292;19220
292;19222
293;19224
293;19226
293;19228
294;19230
295;19232
295;19234
295;19236
295;19238
296;19240
296;19243
296;19245
296;19247
296;19249
296;19251
297;19253
297;19255
298;19257
298;19259
298;19261
299;19263
299;19265
300;19267
300;19269
300;19271
301;19273
301;19275
301;19277
301;19279
302;19281
302;19283
303;19286
303;19288
303;19290
304;19292
304;19294
304;19296
304;19298
304;19300
305;19302
304;19304
305;19306
305;19308
306;19310
306;19312
307;19314
306;19316
307;19318
306;19320
306;19322
306;19324
306;19326
306;19328
306;19330
305;19332
305;19334
305;19336
305;19338
305;19340
304;19342
304;19344
303;19346
303;19348
302;19350
302;19352
301;19354
301;19356
301;19358
300;19360
300;19362
299;19364
299;19366
299;19368
298;19371
299;19373
298;19375
298;19377
298;19379
297;19381
297;19383
297;19385
297;19387
296;19389
297;19391
296;19393
296;19395
296;19397
295;19399
295;19401
295;19403
294;19405
294;19407
294;19409
294;19411
294;19414
294;19416
294;19418
294;19420
294;19422
294;19424
294;19426
294;19428
295;19430
295;19432
296;19434
295;19436
296;19438
295;19440
295;19442
295;19444
295;19446
295;19448
295;19450
296;19452
296;19454
295;19456
295;19458
295;19460
295;19462
295;19464
295;19466
295;19468
296;19470
295;19472
295;19474
295;19476
295;19478
295;19480
294;19482
294;19484
294;19486
294;19488
295;19490
294;19492
294;19494
294;19496
294;19499
294;19501
293;19503
293;19505
293;19507
293;19509
293;19511
293;19513
293;19515
294;19517
293;19519
293;19521
293;19523
292;19525
293;19527
293;19529
293;19531
293;19533
293;19535
293;19537
293;19539
293;19542
292;19544
292;19546
292;19548
292;19550
292;19552
293;19554
293;19556
293;19558
293;19560
293;19562
293;19564
293;19566
293;19568
293;19570
293;19572
293;19574
293;19576
292;19578
292;19580
291;19582
292;19584
291;19586
292;19588
292;19590
293;19592
293;19594
293;19596
293;19598
293;19600
293;19602
293;19604
293;19606
293;19608
293;19610
294;19612
294;19614
294;19616
294;19618
294;19620
294;19622
294;19624
294;19627
294;19629
294;19631
294;19633
294;19635
294;19637
294;19639
294;19641
294;19643
294;19645
294;19647
294;19649
294;19651
295;19653
294;19655
295;19657
294;19659
294;19661
295;19663
295;19665
295;19667
295;19670
294;19672
295;19674
295;19676
295;19678
296;19680
295;19682
296;19684
296;19686
295;19688
295;19690
296;19692
295;19694
296;19696
296;19698
296;19700
297;19702
296;19704
296;19706
296;19708
296;19710
296;19712
296;19714
296;19716
296;19718
296;19720
295;19722
296;19724
296;19726
296;19728
296;19730
296;19732
297;19734
297;19736
297;19738
297;19740
298;19742
297;19744
298;19746
298;19748
298;19750
298;19752
298;19755
298;19757
298;19759
298;19761
298;19763
298;19765
298;19767
298;19769
297;19771
298;19773
298;19775
297;19777
298;19779
297;19781
297;19783
297;19785
296;19787
295;19789
295;19791
295;19793
296;19795
297;19798
298;19800
298;19802
299;19804
300;19806
300;19808
301;19810
302;19812
302;19814
303;19816
302;19818
303;19820
303;19822
302;19824
303;19826
303;19828
303;19830
303;19832
303;19834
303;19836
303;19838
303;19840
303;19842
303;19844
302;19846
302;19848
302;19850
301;19852
301;19854
301;19856
300;19858
299;19860
298;19862
298;19864
297;19866
297;19868
297;19870
298;19872
298;19874
299;19876
299;19878
299;19880
300;19883
300;19885
299;19887
300;19889
300;19891
299;19893
299;19895
299;19897
299;19899
299;19901
298;19903
298;19905
297;19907
297;19909
297;19911
296;19913
297;19915
298;19917
300;19919
304;19921
307;19923
312;19926
317;19928
322;19930
326;19932
331;19934
335;19936
338;19938
338;19940
338;19942
336;19944
333;19946
329;19948
325;19950
321;19952
318;19954
315;19956
312;19958
309;19960
307;19962
306;19964
306;19966
306;19968
305;19970
304;19972
304;19974
303;19976
303;19978
302;19980
301;19982
301;19984
300;19986
299;19988
299;19990
298;19992
299;19994
297;19996
297;19998
297;20000
296;20002
296;20004
296;20006
295;20008
295;20011
294;20013
294;20015
293;20017
293;20019
293;20021
292;20023
292;20025
292;20027
292;20029
293;20031
292;20033
293;20035
293;20037
293;20039
294;20041
294;20043
293;20045
294;20047
293;20049
294;20051
294;20054
294;20056
294;20058
294;20060
294;20062
294;20064
294;20066
294;20068
294;20070
294;20072
295;20074
295;20076
295;20078
295;20080
295;20082
296;20084
296;20086
296;20088
296;20090
297;20092
297;20094
297;20096
298;20098
298;20100
298;20102
298;20104
298;20106
299;20108
299;20110
299;20112
300;20114
300;20116
300;20118
300;20120
301;20122
301;20124
302;20126
302;20128
302;20130
302;20132
303;20134
303;20136
303;20139
304;20141
304;20143
304;20145
304;20147
305;20149
305;20151
305;20153
306;20155
306;20157
307;20159
307;20161
307;20163
307;20165
307;20167
307;20169
307;20171
307;20173
308;20175
307;20177
307;20179
308;20182
307;20184
306;20186
306;20188
306;20190
306;20192
305;20194
305;20196
305;20198
305;20200
304;20202
304;20204
303;20206
304;20208
304;20210
303;20212
303;20214
303;20216
303;20218
302;20220
302;20222
301;20224
301;20226
301;20228
300;20230
300;20232
299;20234
299;20236
299;20238
298;20240
298;20242
297;20244
297;20246
297;20248
297;20250
296;20252
295;20254
295;20256
294;20258
294;20260
294;20262
294;20264
295;20267
295;20269
295;20271
295;20273
295;20275
295;20277
294;20279
295;20281
294;20283
294;20285
295;20287
294;20289
295;20291
295;20293
295;20295
296;20297
296;20299
295;20301
295;20303
294;20305
294;20307
295;20310
295;20312
295;20314
295;20316
295;20318
295;20320
295;20322
295;20324
295;20326
295;20328
295;20330
296;20332
295;20334
296;20336
295;20338
295;20340
295;20342
295;20344
294;20346
295;20348
294;20350
294;20352
295;20354
295;20356
294;20358
294;20360
294;20362
294;20364
293;20366
292;20368
292;20370
291;20372
291;20374
292;20376
292;20378
293;20380
293;20382
293;20384
293;20386
292;20388
292;20390
292;20392
292;20395
293;20397
293;20399
293;20401
293;20403
293;20405
293;20407
293;20409
293;20411
293;20413
293;20415
293;20417
293;20419
293;20421
292;20423
292;20425
292;20427
292;20429
292;20431
292;20433
292;20435
293;20438
292;20440
292;20442
292;20444
292;20446
292;20448
292;20450
293;20452
293;20454
294;20456
294;20458
294;20460
293;20462
293;20464
293;20466
292;20468
293;20470
292;20472
293;20474
294;20476
294;20478
294;20480
294;20482
294;20484
294;20486
294;20488
294;20490
294;20492
294;20494
294;20496
295;20498
295;20500
295;20502
296;20504
296;20506
297;20508
297;20510
298;20512
298;20514
299;20516
300;20518
300;20520
299;20523
300;20525
300;20527
300;20529
301;20531
301;20533
302;20535
302;20537
302;20539
302;20541
302;20543
301;20545
301;20547
301;20549
301;20551
301;20553
301;20555
300;20557
300;20559
299;20561
299;20563
299;20566
298;20568
298;20570
297;20572
296;20574
296;20576
295;20578
294;20580
295;20582
294;20584
295;20586
295;20588
295;20590
295;20592
295;20594
295;20596
296;20598
296;20600
296;20602
296;20604
296;20606
296;20608
296;20610
296;20612
295;20614
295;20616
295;20618
294;20620
294;20622
293;20624
293;20626
293;20628
294;20630
296;20632
299;20634
303;20636
307;20638
311;20640
316;20642
320;20644
325;20646
329;20648
332;20651
333;20653
334;20655
331;20657
328;20659
325;20661
322;20663
319;20665
316;20667
312;20669
309;20671
306;20673
304;20675
302;20677
300;20679
299;20681
298;20683
297;20685
297;20687
297;20689
296;20691
296;20694
295;20696
295;20698
295;20700
294;20702
294;20704
294;20706
293;20708
294;20710
294;20712
294;20714
294;20716
294;20718
294;20720
293;20722
293;20724
293;20726
293;20728
292;20730
293;20732
292;20734
292;20736
292;20738
292;20740
291;20742
291;20744
289;20746
289;20748
289;20750
289;20752
290;20754
290;20756
291;20758
292;20760
292;20762
293;20764
293;20766
294;20768
294;20770
294;20772
295;20774
295;20776
295;20779
295;20781
296;20783
296;20785
296;20787
296;20789
297;20791
297;20793
297;20795
297;20797
298;20799
298;20801
298;20803
298;20805
299;20807
299;20809
299;20811
300;20813
300;20815
300;20817
301;20819
301;20822
302;20824
302;20826
302;20828
302;20830
303;20832
303;20834
304;20836
304;20838
304;20840
304;20842
303;20844
303;20846
304;20848
304;20850
305;20852
306;20854
306;20856
307;20858
307;20860
308;20862
308;20864
308;20866
309;20868
309;20870
310;20872
310;20874
311;20876
311;20878
311;20880
311;20882
310;20884
310;20886
310;20888
309;20890
309;20892
309;20894
309;20896
309;20898
309;20900
308;20902
308;20904
307;20907
306;20909
305;20911
305;20913
305;20915
304;20917
304;20919
303;20921
302;20923
302;20925
301;20927
300;20929
300;20931
299;20933
298;20935
298;20937
297;20939
297;20941
296;20943
295;20945
295;20947
294;20950
294;20952
294;20954
293;20956
294;20958
293;20960
293;20962
293;20964
293;20966
292;20968
292;20970
292;20972
292;20974
292;20976
292;20978
292;20980
292;20982
292;20984
292;20986
292;20988
292;20990
293;20992
293;20994
292;20996
292;20998
293;21000
292;21002
292;21004
291;21006
291;21008
291;21010
291;21012
291;21014
291;21016
292;21018
292;21020
292;21022
292;21024
292;21026
292;21028
293;21030
293;21032
293;21035
293;21037
293;21039
293;21041
293;21043
293;21045
293;21047
293;21049
293;21051
293;21053
293;21055
293;21057
293;21059
293;21061
292;21063
292;21065
292;21067
292;21069
292;21071
292;21073
291;21075
292;21078
290;21080
290;21082
290;21084
289;21086
289;21088
289;21090
289;21092
290;21094
291;21096
291;21098
291;21100
291;21102
291;21104
291;21106
291;21108
292;21110
292;21112
292;21114
292;21116
292;21118
292;21120
292;21122
291;21124
291;21126
291;21128
291;21130
292;21132
292;21134
292;21136
292;21138
292;21140
292;21142
292;21144
291;21146
291;21148
291;21150
291;21152
292;21154
292;21156
292;21158
293;21160
293;21163
293;21165
294;21167
294;21169
294;21171
295;21173
295;21175
295;21177
296;21179
296;21181
296;21183
296;21185
296;21187
296;21189
297;21191
297;21193
298;21195
299;21197
300;21199
300;21201
300;21203
300;21206
301;21208
301;21210
300;21212
301;21214
301;21216
301;21218
301;21220
301;21222
301;21224
301;21226
301;21228
301;21230
301;21232
301;21234
301;21236
300;21238
300;21240
299;21242
299;21244
298;21246
298;21248
298;21250
297;21252
297;21254
297;21256
297;21258
297;21260
296;21262
296;21264
295;21266
295;21268
294;21270
294;21272
294;21274
294;21276
294;21278
294;21280
295;21282
294;21284
294;21286
294;21288
294;21291
294;21293
293;21295
293;21297
293;21299
292;21301
291;21303
291;21305
291;21307
290;21309
292;21311
293;21313
297;21315
301;21317
305;21319
310;21321
315;21323
319;21325
323;21327
327;21329
330;21331
332;21334
332;21336
330;21338
328;21340
324;21342
321;21344
317;21346
313;21348
310;21350
307;21352
305;21354
303;21356
302;21358
301;21360
300;21362
299;21364
299;21366
298;21368
298;21370
297;21372
297;21374
297;21376
297;21378
296;21380
296;21382
296;21384
295;21386
295;21388
294;21390
294;21392
293;21394
293;21396
293;21398
293;21400
293;21402
293;21404
293;21406
292;21408
293;21410
292;21412
292;21414
292;21416
291;21419
292;21421
291;21423
291;21425
291;21427
291;21429
291;21431
291;21433
291;21435
292;21437
292;21439
292;21441
292;21443
292;21445
292;21447
293;21449
293;21451
293;21453
293;21455
293;21457
293;21459
293;21462
294;21464
294;21466
295;21468
295;21470
296;21472
296;21474
296;21476
297;21478
297;21480
297;21482
298;21484
297;21486
298;21488
298;21490
298;21492
299;21494
299;21496
300;21498
300;21500
300;21502
301;21504
301;21506
301;21508
301;21510
302;21512
302;21514
302;21516
303;21518
303;21520
303;21522
304;21524
304;21526
304;21528
304;21530
304;21532
305;21534
306;21536
305;21538
306;21540
306;21542
306;21544
307;21547
307;21549
307;21551
307;21553
308;21555
308;21557
307;21559
308;21561
308;21563
308;21565
308;21567
308;21569
308;21571
308;21573
309;21575
308;21577
308;21579
308;21581
307;21583
306;21585
305;21587
305;21590
304;21592
303;21594
303;21596
302;21598
302;21600
301;21602
300;21604
300;21606
299;21608
298;21610
298;21612
297;21614
297;21616
296;21618
296;21620
296;21622
295;21624
295;21626
295;21628
294;21630
294;21632
294;21634
294;21636
294;21638
294;21640
294;21642
294;21644
293;21646
293;21648
293;21650
293;21652
293;21654
293;21656
292;21658
292;21660
292;21662
291;21664
292;21666
291;21668
291;21670
291;21672
291;21675
291;21677
291;21679
291;21681
292;21683
292;21685
292;21687
293;21689
293;21691
293;21693
293;21695
293;21697
293;21699
293;21701
293;21703
293;21705
293;21707
293;21709
294;21711
293;21713
293;21715
293;21718
294;21720
294;21722
294;21724
294;21726
293;21728
293;21730
293;21732
294;21734
293;21736
293;21738
292;21740
292;21742
292;21744
291;21746
292;21748
292;21750
292;21752
292;21754
292;21756
292;21758
291;21760
291;21762
291;21764
291;21766
291;21768
291;21770
291;21772
291;21774
291;21776
292;21778
292;21780
292;21782
292;21784
292;21786
292;21788
293;21790
293;21792
293;21794
293;21796
293;21798
293;21800
293;21803
293;21805
293;21807
292;21809
292;21811
292;21813
292;21815
292;21817
292;21819
292;21821
292;21823
293;21825
292;21827
293;21829
294;21831
294;21833
294;21835
295;21837
295;21839
295;21841
296;21843
296;21846
297;21848
297;21850
297;21852
298;21854
298;21856
298;21858
299;21860
300;21862
300;21864
300;21866
301;21868
301;21870
301;21872
301;21874
302;21876
301;21878
302;21880
301;21882
300;21884
300;21886
300;21888
299;21890
299;21892
299;21894
299;21896
300;21898
299;21900
299;21902
299;21904
299;21906
298;21908
299;21910
298;21912
297;21914
297;21916
297;21918
297;21920
296;21922
296;21924
297;21926
296;21928
297;21931
297;21933
297;21935
297;21937
297;21939
297;21941
297;21943
296;21945
296;21947
295;21949
295;21951
295;21953
294;21955
294;21957
293;21959
293;21961
293;21963
293;21965
293;21967
295;21969
296;21971
300;21974
304;21976
309;21978
314;21980
318;21982
323;21984
327;21986
330;21988
333;21990
333;21992
333;21994
331;21996
328;21998
325;22000
322;22002
318;22004
315;22006
312;22008
309;22010
307;22012
305;22014
304;22016
303;22018
302;22020
301;22022
301;22024
300;22026
299;22028
299;22030
298;22032
298;22034
297;22036
297;22038
297;22040
296;22042
296;22044
296;22046
295;22048
295;22050
295;22052
294;22054
294;22056
295;22059
294;22061
294;22063
293;22065
293;22067
293;22069
293;22071
294;22073
294;22075
294;22077
295;22079
295;22081
296;22083
296;22085
296;22087
296;22089
296;22091
296;22093
296;22095
297;22097
297;22099
297;22102
297;22104
297;22106
297;22108
297;22110
297;22112
297;22114
298;22116
298;22118
298;22120
298;22122
298;22124
297;22126
297;22128
297;22130
297;22132
297;22134
297;22136
297;22138
298;22140
299;22142
299;22144
300;22146
301;22148
301;22150
302;22152
303;22154
303;22156
304;22158
305;22160
305;22162
305;22164
305;22166
306;22168
306;22170
306;22172
307;22174
308;22176
308;22178
308;22180
309;22182
309;22184
309;22187
310;22189
310;22191
310;22193
311;22195
311;22197
311;22199
312;22201
311;22203
311;22205
312;22207
312;22209
311;22211
311;22213
311;22215
311;22217
311;22219
311;22221
312;22223
312;22225
311;22227
311;22230
311;22232
310;22234
310;22236
309;22238
309;22240
309;22242
308;22244
308;22246
307;22248
306;22250
306;22252
305;22254
304;22256
304;22258
304;22260
303;22262
303;22264
302;22266
302;22268
301;22270
300;22272
300;22274
299;22276
298;22278
298;22280
297;22282
297;22284
296;22286
295;22288
295;22290
295;22292
294;22294
294;22296
294;22298
293;22300
293;22302
293;22304
292;22306
293;22308
292;22310
292;22312
291;22315
291;22317
291;22319
291;22321
291;22323
291;22325
291;22327
291;22329
291;22331
291;22333
292;22335
293;22337
292;22339
293;22341
293;22343
293;22345
294;22347
294;22349
293;22351
294;22353
293;22355
293;22358
293;22360
293;22362
293;22364
293;22366
294;22368
294;22370
294;22372
294;22374
293;22376
294;22378
294;22380
293;22382
293;22384
293;22386
292;22388
292;22390
291;22392
291;22394
291;22396
291;22398
291;22400
291;22402
291;22404
290;22406
290;22408
291;22410
291;22412
291;22414
291;22416
292;22418
292;22420
293;22422
293;22424
292;22426
293;22428
292;22430
292;22432
292;22434
292;22436
292;22438
293;22440
293;22443
293;22445
293;22447
293;22449
292;22451
293;22453
293;22455
292;22457
293;22459
293;22461
293;22463
294;22465
294;22467
295;22469
296;22471
296;22473
296;22475
296;22477
296;22479
297;22481
297;22483
297;22486
297;22488
298;22490
298;22492
298;22494
299;22496
299;22498
299;22500
300;22502
300;22504
300;22506
300;22508
300;22510
299;22512
299;22514
299;22516
299;22518
299;22520
299;22522
299;22524
299;22526
298;22528
298;22530
297;22532
297;22534
297;22536
296;22538
296;22540
295;22542
294;22544
294;22546
293;22548
293;22550
293;22552
293;22554
293;22556
293;22558
293;22560
293;22562
293;22564
293;22566
292;22568
292;22571
291;22573
292;22575
292;22577
292;22579
292;22581
292;22583
292;22585
292;22587
291;22589
291;22591
290;22593
290;22595
290;22597
290;22599
292;22601
293;22603
296;22605
299;22607
303;22609
307;22611
312;22614
317;22616
321;22618
325;22620
327;22622
329;22624
328;22626
326;22628
323;22630
320;22632
317;22634
314;22636
311;22638
308;22640
306;22642
303;22644
301;22646
299;22648
297;22650
297;22652
297;22654
296;22656
296;22658
296;22660
297;22662
297;22664
296;22666
296;22668
295;22670
295;22672
294;22674
294;22676
294;22678
294;22680
294;22682
293;22684
293;22686
293;22688
292;22690
292;22692
292;22694
292;22696
292;22699
291;22701
291;22703
291;22705
290;22707
290;22709
290;22711
290;22713
290;22715
290;22717
290;22719
290;22721
290;22723
291;22725
291;22727
292;22729
292;22731
292;22733
292;22735
293;22737
293;22739
293;22742
294;22744
294;22746
294;22748
294;22750
294;22752
294;22754
294;22756
295;22758
295;22760
295;22762
296;22764
295;22766
295;22768
296;22770
295;22772
296;22774
296;22776
296;22778
297;22780
297;22782
297;22784
298;22786
298;22788
298;22790
299;22792
300;22794
300;22796
301;22798
302;22800
303;22802
303;22804
304;22806
304;22808
304;22810
305;22812
305;22814
306;22816
306;22818
306;22820
307;22822
307;22824
307;22827
307;22829
307;22831
307;22833
307;22835
307;22837
308;22839
308;22841
308;22843
309;22845
308;22847
308;22849
308;22851
307;22853
307;22855
307;22857
307;22859
307;22861
307;22863
307;22865
306;22867
306;22870
306;22872
306;22874
305;22876
305;22878
305;22880
305;22882
304;22884
303;22886
303;22888
302;22890
302;22892
301;22894
300;22896
300;22898
299;22900
299;22902
299;22904
298;22906
297;22908
296;22910
296;22912
295;22914
295;22916
294;22918
294;22920
293;22922
293;22924
293;22926
292;22928
292;22930
291;22932
291;22934
291;22936
292;22938
291;22940
291;22942
291;22944
291;22946
291;22948
291;22950
292;22952
292;22955
292;22957
292;22959
292;22961
292;22963
292;22965
292;22967
292;22969
292;22971
292;22973
292;22975
292;22977
292;22979
293;22981
293;22983
293;22985
293;22987
293;22989
293;22991
292;22993
293;22995
292;22998
292;23000
292;23002
292;23004
291;23006
290;23008
290;23010
291;23012
290;23014
290;23016
291;23018
291;23020
292;23022
292;23024
292;23026
292;23028
291;23030
291;23032
292;23034
292;23036
292;23038
293;23040
293;23042
293;23044
294;23046
294;23048
294;23050
295;23052
296;23054
296;23056
296;23058
296;23060
296;23062
296;23064
296;23066
296;23068
296;23070
297;23072
298;23074
299;23076
300;23078
301;23080
302;23083
303;23085
303;23087
303;23089
304;23091
304;23093
304;23095
305;23097
305;23099
305;23101
305;23103
304;23105
304;23107
304;23109
302;23111
302;23113
302;23115
301;23117
301;23119
301;23121
300;23123
299;23126
298;23128
297;23130
296;23132
295;23134
294;23136
294;23138
293;23140
293;23142
293;23144
292;23146
292;23148
291;23150
291;23152
290;23154
290;23156
289;23158
289;23160
289;23162
289;23164
289;23166
289;23168
289;23170
289;23172
288;23174
288;23176
288;23178
287;23180
287;23182
286;23184
286;23186
285;23188
284;23190
284;23192
283;23194
283;23196
283;23198
283;23200
285;23202
287;23204
290;23206
294;23208
299;23211
304;23213
309;23215
313;23217
318;23219
321;23221
323;23223
324;23225
323;23227
320;23229
316;23231
313;23233
309;23235
306;23237
304;23239
301;23241
300;23243
298;23245
297;23247
296;23249
295;23251
294;23254
294;23256
292;23258
292;23260
292;23262
292;23264
292;23266
291;23268
291;23270
290;23272
290;23274
290;23276
289;23278
290;23280
290;23282
290;23284
290;23286
290;23288
290;23290
290;23292
289;23294
289;23296
290;23298
290;23300
289;23302
290;23304
289;23306
289;23308
289;23310
289;23312
289;23314
289;23316
288;23318
289;23320
288;23322
289;23324
289;23326
289;23328
289;23330
288;23332
289;23334
289;23336
289;23339
290;23341
290;23343
290;23345
291;23347
292;23349
292;23351
292;23353
292;23355
292;23357
293;23359
293;23361
294;23363
294;23365
294;23367
295;23369
295;23371
296;23373
296;23375
297;23377
297;23379
297;23382
298;23384
298;23386
299;23388
299;23390
299;23392
299;23394
300;23396
300;23398
301;23400
301;23402
301;23404
301;23406
302;23408
302;23410
302;23412
302;23414
303;23416
303;23418
303;23420
304;23422
305;23424
305;23426
305;23428
306;23430
306;23432
306;23434
306;23436
306;23438
307;23440
308;23442
307;23444
308;23446
308;23448
308;23450
308;23452
308;23454
308;23456
307;23458
308;23460
307;23462
306;23464
306;23467
305;23469
305;23471
305;23473
304;23475
304;23477
304;23479
304;23481
304;23483
303;23485
303;23487
302;23489
301;23491
300;23493
299;23495
299;23497
299;23499
299;23501
298;23503
298;23505
297;23507
297;23510
296;23512
296;23514
296;23516
296;23518
296;23520
295;23522
295;23524
295;23526
295;23528
295;23530
295;23532
294;23534
294;23536
295;23538
294;23540
294;23542
294;23544
294;23546
294;23548
293;23550
293;23552
294;23554
294;23556
293;23558
293;23560
293;23562
293;23564
292;23566
292;23568
292;23570
292;23572
292;23574
293;23576
293;23578
294;23580
294;23582
295;23584
295;23586
294;23588
295;23590
295;23592
294;23595
295;23597
295;23599
295;23601
295;23603
295;23605
295;23607
295;23609
295;23611
294;23613
294;23615
294;23617
294;23619
294;23621
294;23623
294;23625
294;23627
294;23629
294;23631
294;23633
294;23635
295;23638
295;23640
295;23642
295;23644
296;23646
295;23648
296;23650
296;23652
297;23654
297;23656
298;23658
299;23660
299;23662
300;23664
301;23666
302;23668
303;23670
303;23672
304;23674
304;23676
305;23678
305;23680
306;23682
307;23684
308;23686
308;23688
308;23690
308;23692
307;23694
307;23696
307;23698
306;23700
306;23702
305;23704
304;23706
302;23708
301;23710
300;23712
299;23714
298;23716
298;23718
298;23720
297;23723
297;23725
296;23727
295;23729
294;23731
294;23733
293;23735
293;23737
292;23739
292;23741
292;23743
292;23745
291;23747
291;23749
291;23751
290;23753
289;23755
289;23757
290;23759
289;23761
289;23763
289;23766
289;23768
289;23770
288;23772
288;23774
288;23776
287;23778
287;23780
286;23782
286;23784
285;23786
285;23788
284;23790
284;23792
285;23794
286;23796
288;23798
292;23800
296;23802
301;23804
306;23806
308;23808
312;23810
317;23812
321;23814
323;23816
323;23818
323;23820
320;23822
318;23824
315;23826
311;23828
308;23830
304;23832
302;23834
300;23836
298;23838
298;23840
296;23842
296;23844
296;23846
295;23848
295;23851
294;23853
293;23855
293;23857
292;23859
292;23861
292;23863
291;23865
291;23867
290;23869
290;23871
290;23873
289;23875
289;23877
289;23879
289;23881
289;23883
288;23885
289;23887
289;23889
288;23891
288;23894
288;23896
288;23898
287;23900
288;23902
288;23904
288;23906
289;23908
290;23910
290;23912
290;23914
290;23916
290;23918
290;23920
291;23922
291;23924
291;23926
292;23928
292;23930
292;23932
293;23934
293;23936
293;23938
293;23940
294;23942
294;23944
294;23946
294;23948
294;23950
294;23952
293;23954
294;23956
295;23958
295;23960
296;23962
296;23964
297;23966
297;23968
297;23970
298;23972
298;23974
297;23976
298;23979
298;23981
298;23983
299;23985
299;23987
300;23989
301;23991
301;23993
302;23995
302;23997
303;23999
303;24001
304;24003
304;24005
305;24007
305;24009
306;24011
306;24013
307;24015
307;24017
307;24019
308;24022
308;24024
308;24026
308;24028
308;24030
309;24032
309;24034
309;24036
308;24038
309;24040
309;24042
309;24044
309;24046
309;24048
309;24050
308;24052
307;24054
307;24056
306;24058
306;24060
305;24062
305;24064
306;24066
305;24068
305;24070
305;24072
304;24074
304;24076
303;24078
303;24080
303;24082
303;24084
303;24086
302;24088
301;24090
301;24092
300;24094
300;24096
299;24098
299;24100
299;24102
299;24104
298;24107
298;24109
298;24111
297;24113
296;24115
296;24117
296;24119
295;24121
296;24123
296;24125
296;24127
296;24129
295;24131
295;24133
294;24135
294;24137
294;24139
295;24141
295;24143
295;24145
295;24147
295;24150
294;24152
295;24154
294;24156
294;24158
294;24160
294;24162
294;24164
294;24166
294;24168
294;24170
294;24172
294;24174
293;24176
294;24178
294;24180
294;24182
294;24184
294;24186
295;24188
295;24190
295;24192
294;24194
294;24196
294;24198
294;24200
294;24202
294;24204
294;24206
293;24208
293;24210
292;24212
293;24214
292;24216
292;24218
292;24220
292;24222
292;24224
293;24226
292;24228
292;24230
292;24232
292;24235
292;24237
292;24239
292;24241
293;24243
293;24245
293;24247
293;24249
293;24251
293;24253
293;24255
293;24257
293;24259
293;24261
294;24263
294;24265
295;24267
295;24269
295;24271
295;24273
295;24275
296;24278
295;24280
296;24282
297;24284
297;24286
298;24288
300;24290
300;24292
302;24294
302;24296
303;24298
304;24300
305;24302
305;24304
306;24306
307;24308
307;24310
307;24312
307;24314
307;24316
307;24318
307;24320
307;24322
306;24324
306;24326
306;24328
305;24330
304;24332
303;24334
302;24336
301;24338
300;24340
300;24342
299;24344
299;24346
298;24348
298;24350
297;24352
296;24354
296;24356
295;24358
294;24360
294;24363
294;24365
293;24367
292;24369
292;24371
291;24373
291;24375
291;24377
291;24379
291;24381
291;24383
291;24385
291;24387
290;24389
289;24391
289;24393
289;24395
288;24397
289;24399
288;24401
288;24403
288;24406
287;24408
286;24410
285;24412
284;24414
284;24416
284;24418
284;24420
286;24422
288;24424
291;24426
295;24428
300;24430
304;24432
308;24434
314;24436
318;24438
321;24440
324;24442
326;24444
324;24446
324;24448
321;24450
317;24452
314;24454
310;24456
306;24458
303;24460
301;24462
299;24464
298;24466
297;24468
296;24470
296;24472
295;24474
294;24476
294;24478
293;24480
293;24482
292;24484
292;24486
292;24488
291;24491
291;24493
291;24495
291;24497
291;24499
291;24501
290;24503
291;24505
291;24507
290;24509
291;24511
290;24513
290;24515
289;24517
289;24519
289;24521
289;24523
289;24525
289;24527
288;24529
288;24531
288;24534
288;24536
288;24538
288;24540
288;24542
289;24544
289;24546
290;24548
290;24550
290;24552
290;24554
290;24556
291;24558
292;24560
292;24562
293;24564
293;24566
293;24568
293;24570
294;24572
294;24574
294;24576
294;24578
294;24580
295;24582
295;24584
296;24586
296;24588
296;24590
297;24592
296;24594
297;24596
297;24598
297;24600
298;24602
298;24604
299;24606
299;24608
300;24610
300;24612
300;24614
301;24616
301;24619
302;24621
302;24623
303;24625
303;24627
303;24629
303;24631
302;24633
303;24635
303;24637
304;24639
304;24641
305;24643
306;24645
306;24647
306;24649
307;24651
306;24653
307;24655
307;24657
308;24659
308;24662
309;24664
309;24666
309;24668
308;24670
308;24672
308;24674
308;24676
308;24678
308;24680
308;24682
308;24684
308;24686
307;24688
307;24690
306;24692
306;24694
305;24696
305;24698
305;24700
304;24702
304;24704
304;24706
304;24708
304;24710
303;24712
302;24714
302;24716
301;24718
301;24720
301;24722
301;24724
301;24726
300;24728
299;24730
299;24732
298;24734
298;24736
297;24738
297;24740
297;24742
297;24744
296;24747
296;24749
295;24751
295;24753
295;24755
295;24757
294;24759
294;24761
294;24763
294;24765
293;24767
294;24769
294;24771
293;24773
294;24775
294;24777
294;24779
294;24781
294;24783
294;24785
295;24787
294;24790
295;24792
294;24794
294;24796
295;24798
295;24800
295;24802
295;24804
296;24806
295;24808
295;24810
295;24812
295;24814
295;24816
294;24818
294;24820
294;24822
294;24824
294;24826
293;24828
293;24830
293;24832
292;24834
291;24836
291;24838
291;24840
291;24842
291;24844
292;24846
292;24848
292;24850
292;24852
292;24854
291;24856
292;24858
292;24860
292;24862
293;24864
293;24866
293;24868
293;24870
293;24872
292;24875
292;24877
292;24879
292;24881
292;24883
293;24885
293;24887
292;24889
292;24891
292;24893
292;24895
293;24897
293;24899
293;24901
293;24903
294;24905
294;24907
295;24909
295;24911
295;24913
296;24915
296;24918
297;24920
297;24922
298;24924
299;24926
300;24928
301;24930
302;24932
302;24934
303;24936
304;24938
304;24940
305;24942
305;24944
305;24946
306;24948
306;24950
307;24952
307;24954
307;24956
306;24958
306;24960
306;24962
306;24964
306;24966
305;24968
305;24970
304;24972
302;24974
301;24976
300;24978
299;24980
299;24982
299;24984
298;24986
298;24988
297;24990
296;24992
296;24994
295;24996
294;24998
294;25000
293;25003
293;25005
293;25007
292;25009
291;25011
291;25013
290;25015
290;25017
290;25019
290;25021
291;25023
291;25025
290;25027
290;25029
290;25031
289;25033
289;25035
288;25037
288;25039
287;25041
287;25043
287;25046
285;25048
285;25050
284;25052
283;25054
283;25056
284;25058
285;25060
287;25062
291;25064
296;25066
301;25068
306;25070
311;25072
316;25074
319;25076
323;25078
325;25080
325;25082
323;25084
321;25086
319;25088
316;25090
312;25092
308;25094
305;25096
303;25098
301;25100
299;25102
298;25104
298;25106
297;25108
296;25110
295;25112
294;25114
292;25116
292;25118
291;25120
291;25122
291;25124
290;25126
291;25128
291;25131
290;25133
290;25135
289;25137
289;25139
289;25141
288;25143
289;25145
288;25147
288;25149
288;25151
287;25153
287;25155
287;25157
287;25159
288;25161
288;25163
288;25165
289;25167
289;25169
289;25171
289;25174
289;25176
289;25178
290;25180
289;25182
290;25184
289;25186
289;25188
290;25190
289;25192
290;25194
290;25196
290;25198
290;25200
290;25202
290;25204
290;25206
291;25208
291;25210
292;25212
293;25214
293;25216
293;25218
294;25220
294;25222
295;25224
295;25226
295;25228
295;25230
296;25232
296;25234
297;25236
297;25238
297;25240
298;25242
299;25244
299;25246
300;25248
300;25250
300;25252
301;25254
301;25256
301;25259
301;25261
302;25263
303;25265
303;25267
303;25269
303;25271
303;25273
303;25275
304;25277
304;25279
304;25281
304;25283
304;25285
304;25287
304;25289
304;25291
304;25293
304;25295
305;25297
305;25299
305;25302
306;25304
307;25306
308;25308
308;25310
308;25312
308;25314
308;25316
309;25318
309;25320
309;25322
309;25324
309;25326
309;25328
309;25330
308;25332
307;25334
307;25336
306;25338
305;25340
305;25342
304;25344
304;25346
304;25348
303;25350
303;25352
302;25354
301;25356
300;25358
299;25360
298;25362
298;25364
298;25366
299;25368
298;25370
298;25372
298;25374
298;25376
298;25378
297;25380
297;25382
297;25384
297;25387
297;25389
297;25391
297;25393
296;25395
296;25397
296;25399
296;25401
296;25403
296;25405
296;25407
296;25409
296;25411
296;25413
296;25415
295;25417
295;25419
295;25421
295;25423
295;25425
295;25427
295;25430
295;25432
295;25434
294;25436
294;25438
294;25440
294;25442
294;25444
294;25446
294;25448
294;25450
293;25452
293;25454
293;25456
292;25458
292;25460
293;25462
293;25464
293;25466
293;25468
293;25470
293;25472
293;25474
293;25476
293;25478
293;25480
292;25482
293;25484
293;25486
293;25488
293;25490
292;25492
292;25494
292;25496
291;25498
291;25500
291;25502
292;25504
293;25506
293;25508
293;25510
292;25512
292;25515
292;25517
292;25519
292;25521
292;25523
293;25525
293;25527
294;25529
295;25531
295;25533
295;25535
296;25537
296;25539
296;25541
297;25543
298;25545
298;25547
299;25549
299;25551
300;25553
301;25555
301;25558
302;25560
302;25562
303;25564
304;25566
304;25568
304;25570
304;25572
305;25574
305;25576
306;25578
306;25580
305;25582
305;25584
305;25586
305;25588
305;25590
304;25592
303;25594
303;25596
302;25598
301;25600
301;25602
300;25604
300;25606
299;25608
299;25610
298;25612
298;25614
297;25616
297;25618
297;25620
296;25622
296;25624
295;25626
295;25628
294;25630
293;25632
293;25634
293;25636
292;25638
292;25640
292;25643
292;25645
292;25647
292;25649
291;25651
291;25653
291;25655
290;25657
290;25659
290;25661
290;25663
290;25665
289;25667
289;25669
288;25671
288;25673
287;25675
287;25677
287;25679
288;25681
290;25683
294;25686
297;25688
301;25690
306;25692
310;25694
314;25696
319;25698
323;25700
325;25702
327;25704
326;25706
323;25708
321;25710
318;25712
315;25714
312;25716
309;25718
307;25720
304;25722
301;25724
299;25726
298;25728
296;25730
295;25732
294;25734
292;25736
292;25738
291;25740
291;25742
291;25744
291;25746
290;25748
290;25750
289;25752
289;25754
289;25756
289;25758
288;25760
289;25762
288;25764
289;25766
289;25768
289;25771
289;25773
290;25775
289;25777
289;25779
289;25781
290;25783
290;25785
291;25787
291;25789
291;25791
291;25793
290;25795
291;25797
291;25799
291;25801
292;25803
292;25805
293;25807
293;25809
293;25811
293;25814
293;25816
293;25818
293;25820
294;25822
294;25824
294;25826
294;25828
295;25830
295;25832
296;25834
296;25836
297;25838
297;25840
297;25842
298;25844
298;25846
299;25848
298;25850
299;25852
299;25854
299;25856
299;25858
300;25860
300;25862
300;25864
300;25866
300;25868
300;25870
301;25872
301;25874
302;25876
303;25878
304;25880
304;25882
305;25884
305;25886
305;25888
306;25890
306;25892
307;25894
307;25896
308;25899
309;25901
310;25903
310;25905
310;25907
311;25909
312;25911
312;25913
312;25915
313;25917
312;25919
313;25921
313;25923
313;25925
313;25927
313;25929
313;25931
313;25933
313;25935
313;25937
313;25939
313;25942
313;25944
313;25946
312;25948
312;25950
310;25952
309;25954
309;25956
307;25958
306;25960
305;25962
305;25964
305;25966
304;25968
304;25970
304;25972
304;25974
303;25976
303;25978
302;25980
302;25982
302;25984
301;25986
301;25988
301;25990
300;25992
300;25994
299;25996
299;25998
298;26000
298;26002
298;26004
298;26006
298;26008
297;26010
297;26012
296;26014
296;26016
295;26018
295;26020
295;26022
295;26024
295;26027
295;26029
294;26031
294;26033
294;26035
294;26037
293;26039
293;26041
293;26043
293;26045
293;26047
293;26049
293;26051
293;26053
292;26055
292;26057
293;26059
293;26061
293;26063
294;26065
294;26067
294;26070
294;26072
294;26074
294;26076
294;26078
294;26080
294;26082
294;26084
294;26086
295;26088
294;26090
294;26092
294;26094
294;26096
294;26098
294;26100
294;26102
295;26104
295;26106
295;26108
295;26110
295;26112
295;26114
295;26116
295;26118
295;26120
296;26122
296;26124
297;26126
297;26128
298;26130
299;26132
299;26134
299;26136
299;26138
299;26140
300;26142
301;26144
302;26146
302;26148
303;26150
303;26152
303;26155
303;26157
302;26159
302;26161
302;26163
301;26165
301;26167
300;26169
299;26171
298;26173
297;26175
296;26177
296;26179
295;26181
295;26183
294;26185
294;26187
294;26189
293;26191
293;26193
293;26195
293;26198
293;26200
292;26202
292;26204
292;26206
291;26208
291;26210
291;26212
290;26214
290;26216
289;26218
289;26220
288;26222
288;26224
288;26226
288;26228
287;26230
287;26232
286;26234
286;26236
285;26238
285;26240
285;26242
285;26244
285;26246
286;26248
286;26250
287;26252
289;26254
292;26256
294;26258
298;26260
302;26262
306;26264
311;26266
315;26268
320;26270
322;26272
325;26274
325;26276
324;26278
321;26280
318;26283
316;26285
313;26287
310;26289
307;26291
304;26293
301;26295
298;26297
295;26299
293;26301
292;26303
291;26305
291;26307
290;26309
290;26311
289;26313
289;26315
289;26317
288;26319
288;26321
288;26323
288;26326
288;26328
288;26330
288;26332
288;26334
288;26336
287;26338
288;26340
287;26342
288;26344
288;26346
288;26348
288;26350
288;26352
288;26354
288;26356
287;26358
288;26360
288;26362
288;26364
288;26366
289;26368
289;26370
289;26372
290;26374
289;26376
290;26378
290;26380
289;26382
290;26384
290;26386
290;26388
291;26390
291;26392
292;26394
293;26396
293;26398
293;26400
294;26402
294;26404
294;26406
295;26408
295;26411
295;26413
296;26415
296;26417
297;26419
297;26421
297;26423
298;26425
298;26427
299;26429
299;26431
300;26433
300;26435
301;26437
301;26439
301;26441
302;26443
302;26445
303;26447
303;26449
304;26451
304;26454
304;26456
305;26458
305;26460
306;26462
305;26464
306;26466
306;26468
306;26470
307;26472
307;26474
308;26476
309;26478
309;26480
309;26482
310;26484
309;26486
310;26488
310;26490
310;26492
311;26494
311;26496
311;26498
311;26500
311;26502
311;26504
312;26506
312;26508
312;26510
312;26512
311;26514
311;26516
310;26518
309;26520
309;26522
308;26524
308;26526
308;26528
307;26530
306;26532
305;26534
304;26536
304;26539
303;26541
303;26543
302;26545
301;26547
301;26549
300;26551
299;26553
299;26555
298;26557
298;26559
297;26561
297;26563
296;26565
296;26567
295;26569
295;26571
295;26573
293;26575
293;26577
293;26579
292;26582
292;26584
292;26586
292;26588
293;26590
293;26592
293;26594
293;26596
293;26598
293;26600
293;26602
292;26604
293;26606
293;26608
293;26610
293;26612
293;26614
293;26616
293;26618
293;26620
293;26622
293;26624
293;26626
293;26628
293;26630
293;26632
293;26634
293;26636
292;26638
293;26640
292;26642
292;26644
293;26646
293;26648
293;26650
294;26652
293;26654
293;26656
294;26658
294;26660
294;26662
294;26664
295;26667
296;26669
297;26671
298;26673
299;26675
299;26677
299;26679
300;26681
301;26683
301;26685
302;26687
302;26689
303;26691
303;26693
303;26695
303;26697
303;26699
303;26701
303;26703
303;26705
302;26707
302;26710
301;26712
300;26714
299;26716
299;26718
298;26720
297;26722
297;26724
297;26726
297;26728
296;26730
295;26732
295;26734
294;26736
293;26738
293;26740
292;26742
292;26744
291;26746
291;26748
291;26750
290;26752
290;26754
289;26756
289;26758
289;26760
288;26762
289;26764
288;26766
288;26768
288;26770
287;26772
287;26774
287;26776
286;26778
286;26780
286;26782
286;26784
285;26786
285;26788
284;26790
284;26792
283;26795
283;26797
283;26799
283;26801
284;26803
285;26805
287;26807
290;26809
294;26811
298;26813
303;26815
307;26817
312;26819
317;26821
320;26823
323;26825
324;26827
324;26829
321;26831
318;26833
315;26835
311;26838
308;26840
304;26842
301;26844
299;26846
296;26848
294;26850
293;26852
291;26854
290;26856
289;26858
289;26860
288;26862
288;26864
287;26866
288;26868
288;26870
288;26872
288;26874
288;26876
288;26878
288;26880
288;26882
287;26884
288;26886
288;26888
288;26890
288;26892
288;26894
289;26896
289;26898
289;26900
289;26902
288;26904
289;26906
289;26908
288;26910
288;26912
289;26914
288;26916
289;26918
288;26920
288;26923
289;26925
288;26927
289;26929
289;26931
289;26933
289;26935
289;26937
290;26939
290;26941
291;26943
291;26945
292;26947
292;26949
292;26951
293;26953
293;26955
294;26957
293;26959
294;26961
294;26963
294;26966
295;26968
296;26970
296;26972
296;26974
297;26976
298;26978
298;26980
299;26982
299;26984
299;26986
299;26988
299;26990
299;26992
300;26994
301;26996
301;26998
303;27000
303;27002
304;27004
304;27006
305;27008
305;27010
305;27012
305;27014
306;27016
306;27018
306;27020
306;27022
307;27024
308;27026
309;27028
309;27030
309;27032
310;27034
309;27036
310;27038
310;27040
310;27042
310;27044
311;27046
311;27048
312;27051
311;27053
311;27055
311;27057
310;27059
309;27061
309;27063
308;27065
308;27067
308;27069
307;27071
307;27073
306;27075
306;27077
305;27079
306;27081
305;27083
305;27085
304;27087
303;27089
303;27091
302;27094
302;27096
300;27098
300;27100
299;27102
299;27104
299;27106
299;27108
298;27110
298;27112
297;27114
297;27116
296;27118
296;27120
295;27122
296;27124
296;27126
295;27128
295;27130
295;27132
295;27134
295;27136
294;27138
294;27140
294;27142
294;27144
293;27146
293;27148
293;27150
293;27152
293;27154
293;27156
293;27158
292;27160
293;27162
292;27164
292;27166
293;27168
292;27170
293;27172
293;27174
292;27176
293;27179
294;27181
294;27183
295;27185
295;27187
296;27189
297;27191
297;27193
297;27195
297;27197
298;27199
298;27201
298;27203
298;27205
299;27207
300;27209
301;27211
302;27213
302;27215
303;27217
304;27219
304;27222
304;27224
305;27226
305;27228
305;27230
305;27232
305;27234
305;27236
305;27238
305;27240
305;27242
304;27244
304;27246
303;27248
303;27250
302;27252
301;27254
300;27256
299;27258
298;27260
298;27262
297;27264
296;27266
296;27268
296;27270
295;27272
295;27274
295;27276
294;27278
293;27280
292;27282
292;27284
292;27286
291;27288
291;27290
291;27292
290;27294
290;27296
289;27298
289;27300
289;27302
288;27304
288;27307
288;27309
288;27311
288;27313
287;27315
287;27317
286;27319
285;27321
285;27323
283;27325
282;27327
282;27329
281;27331
280;27333
280;27335
279;27337
279;27339
279;27341
279;27343
281;27345
283;27347
287;27350
292;27352
297;27354
301;27356
307;27358
312;27360
317;27362
321;27364
324;27366
325;27368
324;27370
322;27372
319;27374
315;27376
311;27378
307;27380
305;27382
302;27384
300;27386
298;27388
296;27390
295;27392
295;27394
294;27396
293;27398
292;27400
291;27402
291;27404
290;27406
289;27408
289;27410
288;27412
288;27414
288;27416
287;27418
287;27420
287;27422
287;27424
286;27426
286;27428
286;27430
286;27432
286;27435
285;27437
286;27439
286;27441
286;27443
286;27445
287;27447
287;27449
287;27451
287;27453
287;27455
287;27457
287;27459
287;27461
287;27463
287;27465
288;27467
288;27469
289;27471
289;27473
289;27475
290;27478
290;27480
290;27482
291;27484
290;27486
291;27488
292;27490
292;27492
292;27494
292;27496
292;27498
292;27500
292;27502
292;27504
292;27506
292;27508
292;27510
292;27512
292;27514
292;27516
293;27518
293;27520
294;27522
295;27524
295;27526
296;27528
297;27530
297;27532
298;27534
299;27536
299;27538
300;27540
300;27542
301;27544
302;27546
303;27548
303;27550
304;27552
305;27554
304;27556
305;27558
305;27560
305;27563
306;27565
305;27567
306;27569
306;27571
307;27573
307;27575
307;27577
308;27579
308;27581
308;27583
308;27585
309;27587
309;27589
309;27591
308;27593
307;27595
307;27597
306;27599
306;27601
306;27603
306;27606
307;27608
307;27610
306;27612
306;27614
305;27616
304;27618
304;27620
304;27622
304;27624
303;27626
303;27628
303;27630
302;27632
302;27634
301;27636
300;27638
300;27640
299;27642
298;27644
298;27646
298;27648
298;27650
298;27652
297;27654
297;27656
296;27658
296;27660
296;27662
295;27664
295;27666
294;27668
293;27670
293;27672
293;27674
293;27676
293;27678
293;27680
294;27682
294;27684
294;27686
295;27688
294;27691
294;27693
294;27695
293;27697
293;27699
293;27701
293;27703
293;27705
293;27707
294;27709
294;27711
294;27713
294;27715
294;27717
294;27719
295;27721
295;27723
295;27725
295;27727
296;27729
297;27731
297;27734
298;27736
298;27738
298;27740
299;27742
299;27744
299;27746
300;27748
300;27750
302;27752
302;27754
302;27756
303;27758
303;27760
304;27762
304;27764
304;27766
304;27768
304;27770
304;27772
305;27774
305;27776
306;27778
306;27780
306;27782
307;27784
306;27786
306;27788
306;27790
306;27792
305;27794
304;27796
304;27798
303;27800
302;27802
301;27804
300;27806
300;27808
299;27810
298;27812
298;27814
297;27816
295;27819
295;27821
294;27823
293;27825
293;27827
292;27829
292;27831
291;27833
291;27835
289;27837
289;27839
288;27841
287;27843
288;27845
287;27847
287;27849
287;27851
287;27853
286;27855
286;27857
285;27859
285;27862
285;27864
285;27866
285;27868
285;27870
284;27872
284;27874
283;27876
282;27878
282;27880
281;27882
281;27884
281;27886
283;27888
286;27890
290;27892
294;27894
299;27896
305;27898
310;27900
315;27902
318;27904
322;27906
325;27908
327;27910
327;27912
325;27914
323;27916
320;27918
316;27920
312;27922
308;27924
305;27926
302;27928
300;27930
299;27932
297;27934
296;27936
294;27938
293;27940
293;27942
292;27944
292;27947
291;27949
291;27951
290;27953
290;27955
289;27957
288;27959
288;27961
288;27963
288;27965
288;27967
288;27969
288;27971
288;27973
288;27975
287;27977
287;27979
287;27981
287;27983
287;27985
287;27987
287;27990
288;27992
288;27994
288;27996
288;27998
287;28000
287;28002
287;28004
288;28006
288;28008
289;28010
290;28012
289;28014
290;28016
289;28018
289;28020
290;28022
289;28024
290;28026
291;28028
292;28030
292;28032
292;28034
292;28036
293;28038
293;28040
293;28042
293;28044
294;28046
294;28048
295;28050
295;28052
295;28054
295;28056
295;28058
296;28060
296;28062
297;28064
298;28066
298;28068
299;28070
299;28072
299;28075
299;28077
300;28079
300;28081
301;28083
301;28085
302;28087
304;28089
304;28091
305;28093
305;28095
306;28097
306;28099
306;28101
306;28103
306;28105
307;28107
308;28109
308;28111
308;28113
309;28115
309;28118
309;28120
309;28122
309;28124
309;28126
309;28128
310;28130
310;28132
310;28134
309;28136
309;28138
309;28140
309;28142
309;28144
309;28146
309;28148
309;28150
310;28152
309;28154
309;28156
309;28158
309;28160
308;28162
308;28164
307;28166
306;28168
305;28170
306;28172
305;28174
304;28176
303;28178
303;28180
302;28182
301;28184
300;28186
300;28188
299;28190
298;28192
298;28194
297;28196
297;28198
296;28200
295;28203
295;28205
294;28207
293;28209
293;28211
293;28213
293;28215
293;28217
294;28219
294;28221
294;28223
294;28225
294;28227
294;28229
295;28231
295;28233
294;28235
294;28237
294;28239
294;28241
295;28243
294;28246
295;28248
296;28250
295;28252
296;28254
295;28256
295;28258
295;28260
295;28262
296;28264
295;28266
295;28268
296;28270
296;28272
296;28274
295;28276
294;28278
294;28280
294;28282
294;28284
295;28286
295;28288
296;28290
297;28292
297;28294
298;28296
298;28298
298;28300
298;28302
299;28304
299;28306
300;28308
301;28310
303;28312
303;28314
304;28316
305;28318
305;28320
305;28322
306;28324
306;28326
307;28328
307;28331
307;28333
308;28335
308;28337
307;28339
307;28341
306;28343
306;28345
305;28347
305;28349
303;28351
303;28353
302;28355
301;28357
300;28359
300;28361
299;28363
298;28365
298;28367
298;28369
297;28371
296;28374
296;28376
295;28378
294;28380
293;28382
294;28384
293;28386
293;28388
293;28390
293;28392
292;28394
292;28396
291;28398
291;28400
291;28402
290;28404
290;28406
290;28408
290;28410
290;28412
290;28414
290;28416
289;28418
289;28420
288;28422
288;28424
287;28426
287;28428
287;28430
286;28432
286;28434
286;28436
285;28438
286;28440
287;28442
288;28444
292;28446
295;28448
300;28450
305;28452
309;28454
314;28456
318;28459
321;28461
324;28463
326;28465
325;28467
323;28469
321;28471
318;28473
315;28475
312;28477
308;28479
305;28481
302;28483
300;28485
298;28487
297;28489
296;28491
295;28493
295;28495
293;28497
293;28499
292;28502
292;28504
291;28506
291;28508
291;28510
291;28512
290;28514
290;28516
290;28518
290;28520
289;28522
289;28524
289;28526
290;28528
289;28530
290;28532
289;28534
289;28536
289;28538
289;28540
289;28542
289;28544
290;28546
290;28548
290;28550
291;28552
291;28554
292;28556
292;28558
292;28560
292;28562
292;28564
292;28566
292;28568
292;28570
292;28572
293;28574
293;28576
292;28578
293;28580
293;28582
292;28584
292;28587
293;28589
293;28591
294;28593
294;28595
295;28597
296;28599
296;28601
297;28603
298;28605
298;28607
298;28609
299;28611
299;28613
300;28615
300;28617
300;28619
301;28621
301;28623
301;28625
302;28627
303;28630
303;28632
304;28634
304;28636
304;28638
304;28640
304;28642
304;28644
304;28646
305;28648
305;28650
306;28652
306;28654
307;28656
308;28658
308;28660
309;28662
309;28664
309;28666
309;28668
310;28670
310;28672
310;28674
311;28676
311;28678
312;28680
313;28682
312;28684
313;28686
313;28688
313;28690
313;28692
313;28694
313;28696
313;28698
313;28700
312;28702
312;28704
312;28706
311;28708
310;28710
310;28712
309;28715
308;28717
307;28719
306;28721
306;28723
305;28725
304;28727
304;28729
303;28731
304;28733
303;28735
302;28737
302;28739
301;28741
300;28743
300;28745
299;28747
298;28749
298;28751
297;28753
297;28755
297;28758
297;28760
297;28762
297;28764
296;28766
296;28768
296;28770
296;28772
296;28774
296;28776
296;28778
295;28780
295;28782
295;28784
295;28786
295;28788
295;28790
294;28792
295;28794
295;28796
295;28798
294;28800
295;28802
294;28804
295;28806
295;28808
294;28810
295;28812
295;28814
295;28816
295;28818
295;28820
295;28822
295;28824
295;28826
294;28828
295;28830
295;28832
296;28834
296;28836
296;28838
296;28840
296;28843
296;28845
297;28847
297;28849
297;28851
298;28853
298;28855
299;28857
299;28859
300;28861
300;28863
300;28865
301;28867
301;28869
302;28871
303;28873
303;28875
304;28877
304;28879
304;28881
305;28883
305;28886
305;28888
305;28890
305;28892
306;28894
306;28896
306;28898
306;28900
305;28902
304;28904
303;28906
302;28908
302;28910
301;28912
300;28914
301;28916
300;28918
300;28920
299;28922
299;28924
298;28926
298;28928
298;28930
297;28932
297;28934
296;28936
295;28938
295;28940
294;28942
294;28944
294;28946
293;28948
293;28950
293;28952
292;28954
292;28956
291;28958
290;28960
290;28962
289;28964
289;28966
289;28968
289;28971
289;28973
289;28975
289;28977
288;28979
288;28981
287;28983
287;28985
287;28987
286;28989
285;28991
285;28993
285;28995
284;28997
285;28999
285;29001
288;29003
290;29005
293;29007
297;29009
302;29011
307;29014
312;29016
316;29018
320;29020
323;29022
325;29024
324;29026
322;29028
319;29030
316;29032
312;29034
309;29036
305;29038
302;29040
299;29042
297;29044
295;29046
294;29048
293;29050
292;29052
292;29054
292;29056
292;29058
291;29060
291;29062
290;29064
289;29066
289;29068
288;29070
288;29072
288;29074
288;29076
288;29078
287;29080
287;29082
287;29084
287;29086
287;29088
286;29090
286;29092
285;29094
285;29096
285;29099
286;29101
286;29103
285;29105
286;29107
286;29109
286;29111
287;29113
287;29115
287;29117
287;29119
287;29121
287;29123
287;29125
287;29127
287;29129
286;29131
286;29133
286;29135
286;29137
286;29139
287;29142
288;29144
288;29146
289;29148
290;29150
290;29152
290;29154
291;29156
291;29158
291;29160
292;29162
292;29164
293;29166
293;29168
294;29170
294;29172
295;29174
295;29176
295;29178
296;29180
296;29182
296;29184
296;29186
297;29188
297;29190
298;29192
298;29194
298;29196
298;29198
298;29200
299;29202
298;29204
299;29206
299;29208
299;29210
299;29212
300;29214
300;29216
300;29218
301;29220
301;29222
302;29224
302;29227
302;29229
303;29231
304;29233
305;29235
306;29237
306;29239
307;29241
307;29243
308;29245
309;29247
308;29249
308;29251
309;29253
308;29255
309;29257
309;29259
308;29261
308;29263
308;29265
307;29267
307;29270
306;29272
306;29274
306;29276
304;29278
304;29280
303;29282
302;29284
301;29286
300;29288
299;29290
298;29292
297;29294
296;29296
296;29298
295;29300
294;29302
294;29304
294;29306
294;29308
294;29310
294;29312
295;29314
295;29316
295;29318
294;29320
294;29322
293;29324
293;29326
293;29328
293;29330
293;29332
293;29334
294;29336
293;29338
293;29340
293;29342
293;29344
292;29346
293;29348
293;29350
293;29352
294;29355
293;29357
293;29359
293;29361
293;29363
293;29365
292;29367
293;29369
293;29371
292;29373
293;29375
293;29377
292;29379
292;29381
291;29383
291;29385
292;29387
292;29389
293;29391
294;29393
294;29395
295;29398
295;29400
295;29402
295;29404
295;29406
294;29408
294;29410
294;29412
295;29414
295;29416
295;29418
295;29420
295;29422
295;29424
295;29426
295;29428
295;29430
295;29432
295;29434
295;29436
295;29438
295;29440
296;29442
296;29444
296;29446
296;29448
296;29450
297;29452
297;29454
296;29456
297;29458
296;29460
297;29462
297;29464
297;29466
298;29468
298;29470
298;29472
298;29474
299;29476
299;29478
301;29480
301;29483
302;29485
304;29487
304;29489
305;29491
306;29493
306;29495
307;29497
306;29499
306;29501
306;29503
305;29505
304;29507
304;29509
303;29511
302;29513
302;29515
302;29517
300;29519
300;29521
299;29523
298;29526
297;29528
296;29530
295;29532
295;29534
294;29536
293;29538
293;29540
292;29542
291;29544
291;29546
290;29548
289;29550
288;29552
288;29554
287;29556
287;29558
287;29560
287;29562
288;29564
288;29566
288;29568
288;29570
288;29572
288;29574
288;29576
288;29578
288;29580
288;29582
288;29584
287;29586
287;29588
286;29590
285;29592
284;29594
284;29596
284;29598
284;29600
284;29602
285;29604
288;29606
292;29608
296;29611
302;29613
307;29615
312;29617
317;29619
322;29621
325;29623
328;29625
328;29627
327;29629
325;29631
322;29633
318;29635
314;29637
311;29639
308;29641
305;29643
303;29645
302;29647
300;29649
299;29651
298;29654
298;29656
297;29658
296;29660
296;29662
295;29664
294;29666
294;29668
294;29670
294;29672
294;29674
293;29676
292;29678
292;29680
292;29682
292;29684
291;29686
290;29688
290;29690
290;29692
290;29694
290;29696
290;29698
289;29700
289;29702
289;29704
288;29706
289;29708
288;29710
288;29712
288;29714
286;29716
286;29718
286;29720
286;29722
286;29724
286;29726
287;29728
287;29730
287;29732
287;29734
287;29736
287;29739
288;29741
288;29743
288;29745
289;29747
289;29749
290;29751
291;29753
291;29755
291;29757
292;29759
292;29761
293;29763
292;29765
292;29767
293;29769
293;29771
294;29773
295;29775
294;29777
295;29779
294;29782
294;29784
294;29786
294;29788
294;29790
295;29792
295;29794
296;29796
296;29798
297;29800
297;29802
298;29804
298;29806
299;29808
300;29810
301;29812
301;29814
302;29816
303;29818
303;29820
303;29822
303;29824
303;29826
303;29828
304;29830
304;29832
305;29834
305;29836
305;29838
306;29840
306;29842
307;29844
307;29846
307;29848
307;29850
307;29852
308;29854
308;29856
308;29858
308;29860
308;29862
308;29864
308;29867
307;29869
307;29871
307;29873
307;29875
307;29877
306;29879
305;29881
305;29883
303;29885
303;29887
302;29889
301;29891
301;29893
301;29895
300;29897
299;29899
299;29901
298;29903
298;29905
297;29907
297;29910
297;29912
296;29914
297;29916
297;29918
296;29920
296;29922
296;29924
296;29926
296;29928
295;29930
295;29932
295;29934
295;29936
294;29938
294;29940
294;29942
294;29944
294;29946
293;29948
293;29950
293;29952
293;29954
294;29956
294;29958
294;29960
294;29962
293;29964
293;29966
293;29968
293;29970
293;29972
294;29974
294;29976
294;29978
295;29980
295;29982
296;29984
296;29986
296;29988
296;29990
297;29992
297;29995
297;29997
297;29999
296;30001
296;30003
296;30005
296;30007
296;30009
296;30011
297;30013
297;30015
297;30017
297;30019
296;30021
296;30023
295;30025
295;30027
295;30029
295;30031
295;30033
295;30035
295;30038
295;30040
295;30042
295;30044
295;30046
296;30048
295;30050
295;30052
295;30054
296;30056
296;30058
296;30060
296;30062
296;30064
296;30066
295;30068
296;30070
296;30072
296;30074
296;30076
296;30078
296;30080
296;30082
296;30084
296;30086
295;30088
296;30090
295;30092
295;30094
295;30096
295;30098
295;30100
295;30102
295;30104
295;30106
295;30108
295;30110
295;30112
295;30114
296;30116
296;30118
296;30120
296;30123
296;30125
296;30127
296;30129
296;30131
296;30133
296;30135
295;30137
296;30139
295;30141
295;30143
295;30145
295;30147
295;30149
294;30151
294;30153
295;30155
295;30157
295;30159
296;30161
296;30163
296;30166
296;30168
296;30170
296;30172
297;30174
297;30176
297;30178
297;30180
297;30182
297;30184
297;30186
297;30188
297;30190
296;30192
297;30194
296;30196
296;30198
297;30200
296;30202
296;30204
296;30206
296;30208
296;30210
296;30212
295;30214
296;30216
296;30218
296;30220
297;30222
297;30224
298;30226
299;30228
299;30230
299;30232
300;30234
300;30236
301;30238
302;30240
303;30242
304;30244
305;30246
305;30248
305;30251
306;30253
307;30255
307;30257
308;30259
308;30261
308;30263
307;30265
308;30267
308;30269
308;30271
308;30273
308;30275
308;30277
307;30279
306;30281
306;30283
304;30285
303;30287
302;30289
301;30291
300;30294
300;30296
300;30298
300;30300
300;30302
300;30304
300;30306
300;30308
299;30310
299;30312
299;30314
300;30316
300;30318
299;30320
299;30322
298;30324
298;30326
297;30328
298;30330
297;30332
297;30334
297;30336
296;30338
297;30340
296;30342
296;30344
296;30346
295;30348
294;30350
293;30352
292;30354
291;30356
290;30358
290;30360
290;30362
289;30364
289;30366
290;30368
290;30370
292;30372
294;30374
297;30376
301;30379
305;30381
310;30383
316;30385
321;30387
326;30389
331;30391
334;30393
336;30395
336;30397
334;30399
332;30401
328;30403
325;30405
322;30407
318;30409
315;30411
312;30413
310;30415
307;30417
305;30419
303;30422
302;30424
300;30426
299;30428
298;30430
297;30432
297;30434
296;30436
296;30438
295;30440
295;30442
294;30444
294;30446
293;30448
293;30450
293;30452
293;30454
294;30456
294;30458
294;30460
294;30462
293;30464
293;30466
292;30468
292;30470
291;30472
291;30474
291;30476
291;30478
291;30480
291;30482
291;30484
291;30486
291;30488
291;30490
291;30492
291;30494
291;30496
292;30498
292;30500
292;30502
292;30504
292;30507
292;30509
292;30511
292;30513
292;30515
293;30517
293;30519
293;30521
293;30523
293;30525
293;30527
294;30529
294;30531
294;30533
294;30535
295;30537
296;30539
296;30541
296;30543
296;30545
297;30547
298;30550
298;30552
298;30554
299;30556
299;30558
300;30560
300;30562
300;30564
301;30566
301;30568
302;30570
302;30572
303;30574
303;30576
304;30578
304;30580
303;30582
304;30584
304;30586
304;30588
304;30590
304;30592
304;30594
305;30596
305;30598
305;30600
307;30602
307;30604
308;30606
309;30608
309;30610
310;30612
311;30614
311;30616
311;30618
312;30620
311;30622
312;30624
312;30626
312;30628
312;30630
312;30632
312;30635
312;30637
312;30639
312;30641
312;30643
311;30645
310;30647
310;30649
309;30651
309;30653
308;30655
307;30657
307;30659
306;30661
305;30663
304;30665
303;30667
302;30669
302;30671
301;30673
301;30675
301;30678
300;30680
300;30682
300;30684
299;30686
299;30688
298;30690
298;30692
298;30694
298;30696
298;30698
297;30700
297;30702
297;30704
296;30706
296;30708
296;30710
296;30712
296;30714
295;30716
295;30718
295;30720
295;30722
294;30724
293;30726
293;30728
293;30730
293;30732
294;30734
294;30736
294;30738
293;30740
293;30742
293;30744
293;30746
293;30748
292;30750
292;30752
292;30754
293;30756
293;30758
293;30760
294;30763
294;30765
294;30767
294;30769
295;30771
295;30773
295;30775
295;30777
295;30779
295;30781
295;30783
295;30785
295;30787
296;30789
295;30791
296;30793
296;30795
296;30797
296;30799
296;30801
296;30803
296;30806
296;30808
295;30810
295;30812
295;30814
295;30816
295;30818
295;30820
295;30822
295;30824
294;30826
294;30828
294;30830
294;30832
293;30834
294;30836
293;30838
292;30840
293;30842
292;30844
292;30846
293;30848
293;30850
292;30852
292;30854
292;30856
292;30858
292;30860
292;30862
292;30864
293;30866
293;30868
293;30870
293;30872
293;30874
294;30876
294;30878
294;30880
294;30882
294;30884
294;30886
295;30888
294;30891
295;30893
295;30895
295;30897
296;30899
296;30901
296;30903
296;30905
297;30907
296;30909
296;30911
296;30913
296;30915
297;30917
296;30919
297;30921
298;30923
299;30925
301;30927
302;30929
303;30931
304;30934
304;30936
305;30938
306;30940
306;30942
306;30944
306;30946
306;30948
306;30950
306;30952
306;30954
306;30956
306;30958
306;30960
305;30962
304;30964
303;30966
302;30968
301;30970
301;30972
300;30974
300;30976
300;30978
299;30980
299;30982
298;30984
297;30986
297;30988
296;30990
296;30992
295;30994
295;30996
295;30998
294;31000
295;31002
294;31004
294;31006
294;31008
293;31010
293;31012
293;31014
293;31016
293;31019
293;31021
292;31023
292;31025
291;31027
291;31029
290;31031
290;31033
288;31035
287;31037
286;31039
285;31041
284;31043
284;31045
284;31047
285;31049
287;31051
288;31053
291;31055
295;31057
300;31059
304;31062
309;31064
315;31066
320;31068
325;31070
329;31072
332;31074
333;31076
331;31078
329;31080
326;31082
322;31084
319;31086
315;31088
312;31090
309;31092
306;31094
304;31096
302;31098
300;31100
298;31102
297;31104
296;31106
295;31108
294;31110
293;31112
293;31114
293;31116
293;31118
292;31120
292;31122
292;31124
292;31126
291;31128
291;31130
290;31132
291;31134
291;31136
291;31138
291;31140
290;31142
290;31144
290;31147
290;31149
290;31151
290;31153
289;31155
290;31157
290;31159
289;31161
289;31163
289;31165
289;31167
290;31169
290;31171
290;31173
291;31175
291;31177
291;31179
291;31181
291;31183
290;31185
290;31187
290;31190
291;31192
291;31194
291;31196
292;31198
293;31200
293;31202
293;31204
293;31206
294;31208
294;31210
295;31212
295;31214
296;31216
296;31218
296;31220
296;31222
296;31224
296;31226
296;31228
296;31230
297;31232
297;31234
297;31236
298;31238
299;31240
299;31242
300;31244
300;31246
301;31248
301;31250
301;31252
302;31254
302;31256
302;31258
304;31260
304;31262
305;31264
306;31266
306;31268
307;31270
307;31272
307;31275
308;31277
308;31279
308;31281
308;31283
309;31285
309;31287
309;31289
309;31291
310;31293
310;31295
311;31297
311;31299
311;31301
311;31303
311;31305
311;31307
311;31309
311;31311
311;31313
311;31315
311;31318
311;31320
311;31322
310;31324
309;31326
308;31328
307;31330
307;31332
305;31334
305;31336
304;31338
304;31340
303;31342
302;31344
302;31346
302;31348
301;31350
300;31352
300;31354
299;31356
299;31358
298;31360
297;31362
296;31364
296;31366
294;31368
294;31370
294;31372
294;31374
294;31376
294;31378
294;31380
293;31382
293;31384
292;31386
292;31388
292;31390
292;31392
292;31394
292;31396
292;31398
292;31400
292;31403
292;31405
293;31407
292;31409
292;31411
292;31413
293;31415
293;31417
292;31419
293;31421
293;31423
293;31425
292;31427
292;31429
291;31431
291;31433
291;31435
291;31437
291;31439
291;31441
291;31443
290;31446
291;31448
292;31450
292;31452
293;31454
293;31456
293;31458
294;31460
294;31462
294;31464
294;31466
294;31468
294;31470
295;31472
295;31474
295;31476
295;31478
295;31480
295;31482
295;31484
295;31486
296;31488
295;31490
295;31492
295;31494
295;31496
295;31498
295;31500
295;31502
295;31504
295;31506
294;31508
294;31510
294;31512
294;31514
293;31516
294;31518
293;31520
293;31522
293;31524
292;31526
292;31528
291;31531
291;31533
290;31535
290;31537
290;31539
291;31541
291;31543
291;31545
292;31547
292;31549
293;31551
292;31553
292;31555
293;31557
293;31559
293;31561
293;31563
292;31565
293;31567
293;31569
293;31571
293;31574
293;31576
294;31578
294;31580
294;31582
294;31584
294;31586
294;31588
294;31590
294;31592
294;31594
294;31596
294;31598
294;31600
294;31602
293;31604
293;31606
293;31608
292;31610
292;31612
292;31614
292;31616
292;31618
293;31620
293;31622
293;31624
294;31626
294;31628
296;31630
296;31632
297;31634
297;31636
298;31638
298;31640
299;31642
299;31644
299;31646
300;31648
300;31650
300;31652
300;31654
301;31656
302;31659
302;31661
302;31663
302;31665
302;31667
302;31669
302;31671
302;31673
302;31675
302;31677
302;31679
301;31681
301;31683
300;31685
299;31687
299;31689
299;31691
299;31693
299;31695
299;31697
299;31699
299;31702
299;31704
298;31706
298;31708
297;31710
297;31712
297;31714
297;31716
297;31718
297;31720
297;31722
297;31724
297;31726
296;31728
296;31730
297;31732
296;31734
296;31736
296;31738
296;31740
296;31742
296;31744
295;31746
295;31748
295;31750
294;31752
294;31754
293;31756
292;31758
292;31760
291;31762
290;31764
290;31766
289;31768
290;31770
293;31772
297;31774
301;31776
307;31778
312;31780
317;31782
322;31784
327;31787
331;31789
334;31791
335;31793
335;31795
334;31797
331;31799
327;31801
324;31803
320;31805
317;31807
315;31809
312;31811
311;31813
308;31815
308;31817
306;31819
305;31821
305;31823
303;31825
303;31827
302;31830
301;31832
300;31834
300;31836
298;31838
298;31840
296;31842
296;31844
295;31846
294;31848
293;31850
293;31852
292;31854
293;31856
293;31858
293;31860
292;31862
292;31864
292;31866
290;31868
290;31870
290;31872
290;31874
290;31876
291;31878
291;31880
291;31882
291;31884
290;31886
290;31888
290;31890
290;31892
290;31894
290;31896
291;31898
291;31900
290;31902
290;31904
290;31906
289;31908
289;31910
289;31912
289;31915
290;31917
290;31919
291;31921
291;31923
291;31925
292;31927
292;31929
292;31931
292;31933
293;31935
293;31937
294;31939
294;31941
295;31943
295;31945
295;31947
296;31949
296;31951
296;31953
296;31955
297;31958
297;31960
298;31962
298;31964
298;31966
298;31968
299;31970
299;31972
299;31974
299;31976
299;31978
299;31980
298;31982
299;31984
300;31986
301;31988
302;31990
303;31992
303;31994
304;31996
305;31998
305;32000
305;32002
306;32004
306;32006
306;32008
306;32010
307;32012
308;32014
308;32016
308;32018
309;32020
309;32022
309;32024
309;32026
308;32028
308;32030
308;32032
308;32034
308;32036
307;32038
307;32040
306;32043
305;32045
305;32047
304;32049
304;32051
303;32053
304;32055
303;32057
303;32059
302;32061
302;32063
301;32065
301;32067
300;32069
300;32071
299;32073
299;32075
299;32077
299;32079
298;32081
297;32083
297;32086
296;32088
296;32090
296;32092
295;32094
295;32096
295;32098
294;32100
294;32102
293;32104
293;32106
292;32108
291;32110
291;32112
291;32114
291;32116
292;32118
292;32120
292;32122
292;32124
292;32126
292;32128
291;32130
291;32132
292;32134
292;32136
292;32138
293;32140
293;32142
293;32144
294;32146
294;32148
294;32150
294;32152
295;32154
294;32156
295;32158
295;32160
295;32162
295;32164
295;32166
295;32168
295;32171
295;32173
295;32175
295;32177
294;32179
295;32181
294;32183
294;32185
293;32187
293;32189
293;32191
293;32193
292;32195
293;32197
292;32199
293;32201
294;32203
294;32205
295;32207
295;32209
295;32211
295;32214
295;32216
296;32218
296;32220
296;32222
296;32224
296;32226
296;32228
296;32230
296;32232
296;32234
296;32236
296;32238
296;32240
297;32242
296;32244
296;32246
296;32248
295;32250
295;32252
295;32254
295;32256
294;32258
295;32260
295;32262
294;32264
294;32266
293;32268
294;32270
293;32272
294;32274
294;32276
294;32278
294;32280
294;32282
293;32284
294;32286
294;32288
295;32290
295;32292
295;32294
296;32296
296;32299
296;32301
297;32303
296;32305
296;32307
296;32309
296;32311
296;32313
296;32315
296;32317
296;32319
297;32321
297;32323
296;32325
296;32327
295;32329
295;32331
295;32333
295;32335
295;32337
294;32339
295;32342
295;32344
296;32346
296;32348
297;32350
297;32352
298;32354
299;32356
299;32358
300;32360
299;32362
299;32364
299;32366
300;32368
300;32370
301;32372
301;32374
302;32376
303;32378
303;32380
303;32382
303;32384
304;32386
303;32388
304;32390
304;32392
304;32394
304;32396
304;32398
304;32400
304;32402
304;32404
303;32406
303;32408
302;32410
302;32412
301;32414
301;32416
301;32418
301;32420
301;32422
300;32424
299;32427
299;32429
297;32431
297;32433
297;32435
297;32437
298;32439
299;32441
299;32443
300;32445
299;32447
299;32449
299;32451
299;32453
299;32455
299;32457
299;32459
299;32461
299;32463
298;32465
297;32467
297;32470
297;32472
296;32474
296;32476
295;32478
295;32480
294;32482
293;32484
293;32486
294;32488
295;32490
297;32492
300;32494
304;32496
308;32498
313;32500
317;32502
322;32504
327;32506
331;32508
335;32510
336;32512
336;32514
334;32516
332;32518
329;32520
326;32522
323;32524
319;32526
316;32528
313;32530
310;32532
308;32534
305;32536
304;32538
303;32540
302;32542
301;32544
300;32546
299;32548
299;32550
298;32552
297;32555
297;32557
296;32559
295;32561
295;32563
294;32565
293;32567
293;32569
292;32571
292;32573
293;32575
293;32577
293;32579
293;32581
293;32583
293;32585
293;32587
293;32589
293;32591
293;32593
292;32595
293;32598
293;32600
293;32602
293;32604
293;32606
293;32608
293;32610
293;32612
293;32614
293;32616
293;32618
293;32620
293;32622
293;32624
293;32626
294;32628
294;32630
295;32632
295;32634
295;32636
295;32638
295;32640
295;32642
295;32644
294;32646
294;32648
294;32650
294;32652
295;32654
295;32656
295;32658
296;32660
297;32662
297;32664
297;32666
298;32668
298;32670
299;32672
299;32674
300;32676
300;32678
301;32680
302;32683
302;32685
303;32687
303;32689
303;32691
304;32693
305;32695
305;32697
306;32699
307;32701
307;32703
307;32705
307;32707
308;32709
308;32711
308;32713
308;32715
309;32717
309;32719
310;32721
310;32723
310;32726
310;32728
310;32730
310;32732
311;32734
310;32736
310;32738
311;32740
311;32742
311;32744
311;32746
311;32748
311;32750
311;32752
311;32754
312;32756
311;32758
312;32760
312;32762
311;32764
311;32766
311;32768
309;32770
309;32772
308;32774
307;32776
307;32778
306;32780
306;32782
305;32784
304;32786
303;32788
302;32790
301;32792
301;32794
300;32796
300;32798
299;32800
298;32802
297;32804
296;32806
294;32808
293;32811
292;32813
291;32815
292;32817
293;32819
293;32821
293;32823
293;32825
292;32827
292;32829
292;32831
292;32833
292;32835
292;32837
293;32839
293;32841
292;32843
292;32845
292;32847
292;32849
293;32851
292;32854
293;32856
293;32858
293;32860
293;32862
293;32864
293;32866
293;32868
293;32870
293;32872
293;32874
293;32876
292;32878
292;32880
292;32882
292;32884
291;32886
292;32888
292;32890
292;32892
292;32894
292;32896
292;32898
292;32900
293;32902
293;32904
293;32906
293;32908
293;32910
294;32912
294;32914
294;32916
294;32918
295;32920
294;32922
295;32924
295;32926
294;32928
295;32930
294;32932
294;32934
295;32936
294;32939
294;32941
294;32943
294;32945
294;32947
294;32949
293;32951
293;32953
293;32955
292;32957
292;32959
291;32961
290;32963
291;32965
290;32967
290;32969
290;32971
291;32973
291;32975
292;32977
292;32979
292;32982
292;32984
293;32986
293;32988
293;32990
293;32992
293;32994
293;32996
294;32998
293;33000
294;33002
294;33004
293;33006
294;33008
293;33010
293;33012
294;33014
293;33016
293;33018
293;33020
293;33022
293;33024
293;33026
293;33028
294;33030
295;33032
295;33034
295;33036
295;33038
295;33040
295;33042
296;33044
296;33046
297;33048
297;33050
298;33052
298;33054
298;33056
299;33058
299;33060
300;33062
300;33064
301;33067
301;33069
301;33071
301;33073
302;33075
301;33077
301;33079
300;33081
299;33083
299;33085
299;33087
299;33089
299;33091
299;33093
298;33095
298;33097
298;33099
297;33101
297;33103
296;33105
296;33107
296;33110
296;33112
296;33114
296;33116
296;33118
296;33120
296;33122
295;33124
295;33126
295;33128
295;33130
295;33132
295;33134
295;33136
294;33138
294;33140
295;33142
294;33144
294;33146
293;33148
292;33150
293;33152
292;33154
290;33156
290;33158
290;33160
290;33162
291;33164
291;33166
293;33168
295;33170
299;33172
303;33174
307;33176
312;33178
317;33180
322;33182
327;33184
331;33186
333;33188
335;33190
333;33192
331;33195
328;33197
325;33199
322;33201
318;33203
314;33205
311;33207
307;33209
304;33211
301;33213
299;33215
298;33217
297;33219
297;33221
297;33223
296;33225
296;33227
296;33229
294;33231
294;33233
293;33235
294;33238
294;33240
294;33242
294;33244
293;33246
293;33248
292;33250
292;33252
292;33254
292;33256
292;33258
293;33260
293;33262
292;33264
292;33266
291;33268
291;33270
291;33272
291;33274
291;33276
291;33278
291;33280
292;33282
292;33284
292;33286
292;33288
292;33290
292;33292
292;33294
292;33296
292;33298
291;33300
291;33302
291;33304
291;33306
291;33308
290;33310
291;33312
291;33314
291;33316
292;33318
293;33320
293;33323
293;33325
293;33327
293;33329
293;33331
294;33333
295;33335
295;33337
296;33339
297;33341
297;33343
297;33345
298;33347
298;33349
298;33351
299;33353
299;33355
300;33357
300;33359
301;33361
301;33363
301;33366
302;33368
302;33370
302;33372
302;33374
303;33376
303;33378
303;33380
304;33382
304;33384
305;33386
305;33388
306;33390
306;33392
306;33394
307;33396
308;33398
308;33400
309;33402
310;33404
310;33406
310;33408
310;33410
311;33412
311;33414
311;33416
311;33418
311;33420
311;33422
311;33424
311;33426
311;33428
311;33430
310;33432
310;33434
309;33436
309;33438
309;33440
308;33442
308;33444
308;33446
307;33448
307;33451
306;33453
305;33455
305;33457
304;33459
304;33461
303;33463
302;33465
301;33467
300;33469
299;33471
299;33473
298;33475
297;33477
297;33479
296;33481
295;33483
295;33485
294;33487
294;33489
293;33491
293;33494
292;33496
291;33498
291;33500
291;33502
291;33504
291;33506
290;33508
291;33510
291;33512
291;33514
290;33516
290;33518
290;33520
290;33522
290;33524
290;33526
291;33528
291;33530
291;33532
291;33534
290;33536
290;33538
290;33540
291;33542
291;33544
291;33546
291;33548
292;33550
292;33552
293;33554
293;33556
293;33558
293;33560
293;33562
294;33564
294;33566
293;33568
294;33570
293;33572
293;33574
293;33576
293;33579
293;33581
293;33583
292;33585
292;33587
292;33589
292;33591
292;33593
292;33595
292;33597
292;33599
292;33601
293;33603
293;33605
293;33607
293;33609
293;33611
292;33613
292;33615
291;33617
291;33619
291;33622
291;33624
291;33626
291;33628
291;33630
291;33632
291;33634
290;33636
290;33638
290;33640
290;33642
290;33644
290;33646
291;33648
291;33650
291;33652
292;33654
292;33656
293;33658
292;33660
293;33662
293;33664
292;33666
292;33668
293;33670
293;33672
293;33674
293;33676
293;33678
293;33680
293;33682
293;33684
293;33686
293;33688
293;33690
293;33692
292;33694
293;33696
292;33698
292;33700
292;33702
292;33704
293;33707
292;33709
293;33711
292;33713
292;33715
292;33717
293;33719
293;33721
294;33723
295;33725
295;33727
295;33729
296;33731
297;33733
297;33735
297;33737
298;33739
298;33741
299;33743
299;33745
300;33747
300;33750
300;33752
300;33754
300;33756
300;33758
301;33760
301;33762
301;33764
301;33766
301;33768
301;33770
300;33772
300;33774
299;33776
299;33778
299;33780
299;33782
298;33784
298;33786
297;33788
297;33790
296;33792
296;33794
295;33796
295;33798
294;33800
295;33802
295;33804
294;33806
294;33808
294;33810
293;33812
293;33814
292;33816
292;33818
293;33820
293;33822
294;33824
293;33826
293;33828
293;33830
292;33832
292;33835
291;33837
291;33839
291;33841
290;33843
290;33845
289;33847
288;33849
288;33851
288;33853
290;33855
292;33857
296;33859
301;33861
306;33863
312;33865
317;33867
322;33869
326;33871
330;33873
332;33875
332;33878
331;33880
329;33882
326;33884
322;33886
318;33888
314;33890
311;33892
309;33894
307;33896
305;33898
304;33900
303;33902
302;33904
301;33906
300;33908
298;33910
297;33912
296;33914
295;33916
294;33918
294;33920
293;33922
293;33924
293;33926
292;33928
292;33930
292;33932
291;33934
291;33936
292;33938
292;33940
291;33942
291;33944
291;33946
291;33948
290;33950
290;33952
290;33954
290;33956
290;33958
290;33960
290;33963
291;33965
291;33967
291;33969
291;33971
291;33973
290;33975
290;33977
290;33979
290;33981
290;33983
289;33985
289;33987
289;33989
288;33991
289;33993
289;33995
290;33997
290;33999
290;34001
290;34003
290;34006
290;34008
289;34010
289;34012
290;34014
290;34016
291;34018
292;34020
292;34022
293;34024
293;34026
293;34028
294;34030
295;34032
295;34034
296;34036
296;34038
297;34040
297;34042
298;34044
298;34046
299;34048
299;34050
299;34052
300;34054
300;34056
300;34058
301;34060
301;34062
302;34064
303;34066
303;34068
303;34070
303;34072
304;34074
304;34076
303;34078
303;34080
303;34082
303;34084
304;34086
303;34088
304;34091
305;34093
305;34095
306;34097
306;34099
306;34101
307;34103
308;34105
308;34107
308;34109
308;34111
309;34113
308;34115
308;34117
309;34119
308;34121
308;34123
308;34125
308;34127
307;34129
307;34131
306;34134
307;34136
306;34138
305;34140
305;34142
304;34144
304;34146
303;34148
302;34150
301;34152
300;34154
300;34156
299;34158
298;34160
297;34162
296;34164
295;34166
294;34168
294;34170
293;34172
292;34174
292;34176
292;34178
292;34180
292;34182
293;34184
292;34186
293;34188
293;34190
293;34192
293;34194
292;34196
292;34198
292;34200
292;34202
292;34204
292;34206
292;34208
292;34210
292;34212
292;34214
293;34216
293;34219
293;34221
293;34223
293;34225
294;34227
293;34229
293;34231
293;34233
292;34235
293;34237
293;34239
293;34241
293;34243
293;34245
294;34247
294;34249
293;34251
293;34253
293;34255
293;34257
293;34259
293;34262
293;34264
294;34266
294;34268
294;34270
294;34272
294;34274
294;34276
293;34278
293;34280
293;34282
293;34284
293;34286
293;34288
294;34290
294;34292
294;34294
294;34296
294;34298
294;34300
295;34302
295;34304
295;34306
295;34308
294;34310
294;34312
294;34314
293;34316
294;34318
293;34320
293;34322
293;34324
294;34326
294;34328
293;34330
293;34332
293;34334
292;34336
292;34338
292;34340
292;34342
292;34344
292;34347
293;34349
293;34351
292;34353
293;34355
293;34357
293;34359
293;34361
294;34363
294;34365
294;34367
294;34369
294;34371
294;34373
294;34375
295;34377
295;34379
295;34381
295;34383
295;34385
295;34387
295;34390
295;34392
296;34394
296;34396
297;34398
298;34400
298;34402
299;34404
299;34406
299;34408
300;34410
300;34412
300;34414
300;34416
300;34418
301;34420
301;34422
301;34424
301;34426
301;34428
301;34430
301;34432
301;34434
302;34436
303;34438
303;34440
303;34442
303;34444
304;34446
304;34448
303;34450
303;34452
303;34454
302;34456
302;34458
302;34460
301;34462
301;34464
300;34466
299;34468
299;34470
298;34472
298;34475
297;34477
297;34479
297;34481
296;34483
296;34485
296;34487
296;34489
296;34491
296;34493
296;34495
296;34497
296;34499
296;34501
296;34503
296;34505
296;34507
296;34509
295;34511
295;34513
295;34515
295;34518
294;34520
293;34522
293;34524
292;34526
292;34528
291;34530
290;34532
290;34534
290;34536
291;34538
293;34540
296;34542
300;34544
305;34546
309;34548
314;34550
319;34552
324;34554
328;34556
331;34558
332;34560
332;34562
331;34564
329;34566
325;34568
321;34570
318;34572
314;34574
312;34576
310;34578
308;34580
306;34582
305;34584
304;34586
304;34588
302;34590
301;34592
300;34594
299;34596
299;34598
297;34600
297;34603
297;34605
297;34607
297;34609
296;34611
295;34613
295;34615
294;34617
293;34619
293;34621
293;34623
294;34625
293;34627
293;34629
293;34631
292;34633
291;34635
291;34637
291;34639
292;34641
291;34643
291;34646
291;34648
291;34650
290;34652
291;34654
291;34656
290;34658
290;34660
290;34662
290;34664
290;34666
290;34668
290;34670
291;34672
291;34674
291;34676
291;34678
291;34680
292;34682
292;34684
292;34686
292;34688
292;34690
293;34692
293;34694
293;34696
294;34698
294;34700
294;34702
294;34704
295;34706
295;34708
295;34710
295;34712
295;34714
295;34716
295;34718
296;34720
296;34722
297;34724
297;34726
297;34728
297;34731
297;34733
298;34735
298;34737
299;34739
299;34741
300;34743
300;34745
300;34747
301;34749
302;34751
302;34753
303;34755
303;34757
304;34759
304;34761
304;34763
305;34765
305;34767
305;34769
306;34771
306;34774
306;34776
306;34778
306;34780
306;34782
306;34784
306;34786
306;34788
307;34790
307;34792
307;34794
307;34796
308;34798
308;34800
308;34802
307;34804
308;34806
308;34808
307;34810
307;34812
307;34814
307;34816
306;34818
306;34820
305;34822
305;34824
304;34826
304;34828
303;34830
303;34832
302;34834
301;34836
301;34838
301;34840
300;34842
299;34844
299;34846
298;34848
298;34850
297;34852
297;34854
295;34856
295;34859
294;34861
294;34863
293;34865
294;34867
293;34869
294;34871
293;34873
294;34875
293;34877
293;34879
293;34881
292;34883
293;34885
293;34887
293;34889
293;34891
293;34893
293;34895
293;34897
293;34899
293;34902
293;34904
294;34906
294;34908
293;34910
294;34912
293;34914
293;34916
293;34918
293;34920
294;34922
294;34924
294;34926
294;34928
294;34930
294;34932
294;34934
294;34936
294;34938
294;34940
294;34942
293;34944
293;34946
293;34948
293;34950
293;34952
293;34954
293;34956
292;34958
292;34960
292;34962
292;34964
292;34966
292;34968
292;34970
293;34972
292;34974
292;34976
292;34978
292;34980
293;34982
293;34984
294;34987
294;34989
294;34991
294;34993
293;34995
293;34997
294;34999
293;35001
294;35003
293;35005
293;35007
293;35009
292;35011
292;35013
292;35015
292;35017
292;35019
292;35021
292;35023
292;35025
291;35027
291;35030
291;35032
292;35034
292;35036
292;35038
292;35040
293;35042
293;35044
294;35046
294;35048
295;35050
296;35052
296;35054
297;35056
297;35058
298;35060
298;35062
299;35064
299;35066
300;35068
300;35070
301;35072
301;35074
302;35076
303;35078
303;35080
304;35082
304;35084
305;35086
306;35088
306;35090
307;35092
307;35094
308;35096
308;35098
307;35100
307;35102
307;35104
306;35106
306;35108
306;35110
306;35112
306;35115
305;35117
305;35119
304;35121
304;35123
303;35125
302;35127
301;35129
301;35131
300;35133
299;35135
298;35137
298;35139
297;35141
297;35143
297;35145
296;35147
296;35149
295;35151
295;35153
295;35155
294;35158
294;35160
293;35162
294;35164
294;35166
293;35168
293;35170
293;35172
293;35174
293;35176
292;35178
293;35180
292;35182
292;35184
292;35186
291;35188
290;35190
289;35192
288;35194
288;35196
287;35198
286;35200
286;35202
286;35204
287;35206
289;35208
292;35210
296;35212
300;35214
304;35216
310;35218
314;35220
319;35222
323;35224
327;35226
329;35228
328;35230
327;35232
324;35234
321;35236
318;35238
315;35240
311;35243
309;35245
306;35247
304;35249
301;35251
300;35253
299;35255
297;35257
297;35259
297;35261
296;35263
296;35265
295;35267
295;35269
295;35271
294;35273
293;35275
293;35277
292;35279
292;35281
291;35283
290;35286
290;35288
290;35290
289;35292
289;35294
289;35296
289;35298
289;35300
290;35302
291;35304
290;35306
291;35308
290;35310
289;35312
290;35314
290;35316
290;35318
291;35320
292;35322
292;35324
292;35326
292;35328
292;35330
293;35332
293;35334
293;35336
293;35338
293;35340
293;35342
293;35344
294;35346
294;35348
294;35350
294;35352
295;35354
295;35356
295;35358
296;35360
296;35362
296;35364
296;35366
297;35368
297;35371
297;35373
297;35375
298;35377
298;35379
299;35381
299;35383
299;35385
300;35387
300;35389
300;35391
300;35393
301;35395
301;35397
302;35399
302;35401
303;35403
303;35405
305;35407
305;35409
305;35411
306;35414
307;35416
307;35418
307;35420
308;35422
308;35424
309;35426
309;35428
310;35430
310;35432
311;35434
311;35436
311;35438
312;35440
312;35442
313;35444
313;35446
314;35448
314;35450
314;35452
314;35454
314;35456
314;35458
314;35460
314;35462
314;35464
314;35466
313;35468
313;35470
313;35472
312;35474
312;35476
312;35478
312;35480
312;35482
311;35484
311;35486
311;35488
310;35490
310;35492
308;35494
307;35496
307;35499
306;35501
305;35503
304;35505
303;35507
303;35509
302;35511
302;35513
301;35515
301;35517
300;35519
300;35521
299;35523
299;35525
299;35527
298;35529
298;35531
297;35533
296;35535
296;35537
296;35539
295;35542
296;35544
295;35546
295;35548
294;35550
294;35552
293;35554
292;35556
292;35558
293;35560
293;35562
294;35564
294;35566
294;35568
295;35570
295;35572
295;35574
296;35576
295;35578
295;35580
295;35582
295;35584
295;35586
295;35588
295;35590
295;35592
295;35594
294;35596
294;35598
294;35600
294;35602
295;35604
295;35606
295;35608
295;35610
294;35612
294;35614
294;35616
293;35618
293;35620
293;35622
293;35624
293;35627
293;35629
294;35631
293;35633
293;35635
293;35637
293;35639
293;35641
293;35643
294;35645
294;35647
294;35649
293;35651
294;35653
294;35655
294;35657
294;35659
294;35661
295;35663
296;35665
296;35667
297;35670
297;35672
297;35674
297;35676
297;35678
297;35680
297;35682
298;35684
299;35686
300;35688
301;35690
302;35692
302;35694
303;35696
303;35698
304;35700
304;35702
305;35704
305;35706
305;35708
305;35710
305;35712
305;35714
305;35716
305;35718
304;35720
304;35722
304;35724
304;35726
303;35728
303;35730
302;35732
302;35734
301;35736
300;35738
299;35740
299;35742
297;35744
297;35746
296;35748
296;35750
296;35752
295;35755
295;35757
295;35759
294;35761
294;35763
293;35765
293;35767
292;35769
292;35771
291;35773
290;35775
290;35777
290;35779
290;35781
290;35783
290;35785
290;35787
290;35789
289;35791
289;35793
288;35795
288;35798
288;35800
287;35802
287;35804
287;35806
287;35808
287;35810
287;35812
287;35814
289;35816
290;35818
292;35820
296;35822
300;35824
304;35826
309;35828
313;35830
318;35832
323;35834
326;35836
328;35838
328;35840
327;35842
325;35844
322;35846
319;35848
316;35850
312;35852
309;35854
305;35856
302;35858
299;35860
296;35862
294;35864
294;35866
292;35868
291;35870
291;35872
290;35874
290;35876
289;35878
289;35880
289;35883
289;35885
289;35887
289;35889
289;35891
289;35893
289;35895
289;35897
289;35899
289;35901
290;35903
289;35905
289;35907
289;35909
289;35911
289;35913
289;35915
288;35917
289;35919
289;35921
290;35923
290;35926
291;35928
291;35930
291;35932
291;35934
291;35936
291;35938
291;35940
291;35942
291;35944
291;35946
291;35948
291;35950
290;35952
290;35954
290;35956
290;35958
291;35960
292;35962
292;35964
294;35966
294;35968
294;35970
295;35972
295;35974
296;35976
297;35978
297;35980
298;35982
298;35984
298;35986
299;35988
299;35990
300;35992
300;35994
300;35996
301;35998
301;36000
301;36002
302;36004
302;36006
302;36008
303;36011
304;36013
304;36015
304;36017
305;36019
305;36021
305;36023
305;36025
305;36027
306;36029
306;36031
307;36033
308;36035
308;36037
309;36039
310;36041
310;36043
311;36045
311;36047
312;36049
313;36051
313;36054
313;36056
313;36058
313;36060
314;36062
313;36064
314;36066
315;36068
314;36070
314;36072
314;36074
314;36076
314;36078
314;36080
313;36082
313;36084
312;36086
312;36088
311;36090
310;36092
309;36094
310;36096
309;36098
309;36100
308;36102
307;36104
306;36106
305;36108
304;36110
303;36112
302;36114
301;36116
301;36118
299;36120
299;36122
299;36124
299;36126
299;36128
299;36130
298;36132
298;36134
298;36136
297;36139
297;36141
296;36143
296;36145
296;36147
295;36149
295;36151
295;36153
294;36155
294;36157
294;36159
293;36161
294;36163
294;36165
294;36167
294;36169
293;36171
293;36173
293;36175
293;36177
292;36179
293;36182
292;36184
293;36186
292;36188
292;36190
292;36192
292;36194
291;36196
292;36198
291;36200
291;36202
291;36204
291;36206
292;36208
292;36210
292;36212
292;36214
292;36216
292;36218
293;36220
292;36222
292;36224
293;36226
292;36228
293;36230
292;36232
292;36234
292;36236
292;36238
293;36240
293;36242
293;36244
293;36246
294;36248
294;36250
294;36252
294;36254
294;36256
294;36258
294;36260
294;36262
294;36264
294;36267
294;36269
295;36271
296;36273
297;36275
298;36277
299;36279
299;36281
300;36283
301;36285
302;36287
302;36289
303;36291
303;36293
304;36295
304;36297
305;36299
304;36301
304;36303
304;36305
304;36307
304;36310
304;36312
302;36314
302;36316
301;36318
300;36320
299;36322
298;36324
297;36326
297;36328
297;36330
296;36332
296;36334
295;36336
