319;284;2
284;4
284;6
284;8
284;10
284;12
285;14
285;16
285;18
285;20
285;22
285;24
285;26
286;28
285;30
286;32
286;34
286;36
286;38
286;40
286;43
286;45
287;47
287;49
287;51
287;53
287;55
287;57
287;59
287;61
287;63
287;65
288;67
288;69
288;71
288;73
288;75
288;77
288;79
288;81
288;83
288;86
288;88
289;90
289;92
289;94
289;96
289;98
289;100
289;102
289;104
289;106
289;108
290;110
289;112
290;114
289;116
290;118
290;120
290;122
290;124
290;126
290;128
290;130
290;132
291;134
291;136
292;138
292;140
293;142
293;144
294;146
294;148
295;150
295;152
296;154
296;156
296;158
297;160
297;162
298;164
299;166
299;168
300;171
301;173
301;175
302;177
302;179
303;181
303;183
304;185
304;187
305;189
304;191
305;193
305;195
305;197
305;199
305;201
305;203
304;205
304;207
303;209
302;211
302;214
301;216
301;218
300;220
299;222
299;224
298;226
297;228
297;230
296;232
296;234
295;236
295;238
294;240
294;242
293;244
293;246
292;248
292;250
292;252
292;254
292;256
291;258
291;260
291;262
291;264
290;266
291;268
291;270
290;272
290;274
290;276
290;278
289;280
289;282
288;284
288;286
288;288
287;290
287;292
286;294
286;296
286;299
287;301
287;303
289;305
291;307
294;309
299;311
303;313
307;315
312;317
316;319
320;321
324;323
326;325
327;327
327;329
325;331
322;333
320;335
317;337
315;339
312;342
310;344
308;346
306;348
304;350
303;352
302;354
300;356
300;358
299;360
298;362
298;364
297;366
297;368
296;370
296;372
295;374
295;376
295;378
294;380
294;382
294;384
294;386
294;388
293;390
293;392
293;394
293;396
292;398
293;400
293;402
292;404
292;406
292;408
292;410
292;412
292;414
293;416
292;418
293;420
293;422
293;424
293;427
293;429
293;431
293;433
293;435
294;437
294;439
294;441
294;443
294;445
294;447
294;449
295;451
295;453
295;455
296;457
295;459
296;461
296;463
296;465
296;467
297;470
297;472
297;474
298;476
298;478
299;480
299;482
299;484
299;486
300;488
301;490
300;492
301;494
301;496
302;498
302;500
303;502
303;504
304;506
304;508
305;510
305;512
306;514
306;516
307;518
307;520
308;522
309;524
309;526
310;528
311;530
311;532
312;534
312;536
313;538
314;540
314;542
315;544
316;546
316;548
317;550
318;552
318;555
318;557
319;559
319;561
320;563
320;565
320;567
320;569
321;571
321;573
320;575
320;577
320;579
319;581
319;583
318;585
318;587
317;589
316;591
315;593
314;595
313;598
312;600
311;602
310;604
308;606
307;608
306;610
305;612
304;614
303;616
302;618
301;620
300;622
298;624
298;626
296;628
296;630
294;632
294;634
293;636
292;638
292;640
291;642
290;644
290;646
289;648
288;650
288;652
287;654
287;656
286;658
286;660
285;662
285;664
285;666
285;668
284;670
284;672
284;674
284;676
283;678
283;680
283;683
283;685
283;687
283;689
283;691
283;693
283;695
283;697
283;699
283;701
283;703
283;705
283;707
283;709
283;711
284;713
283;715
283;717
284;719
284;721
284;723
284;726
284;728
284;730
285;732
285;734
285;736
285;738
285;740
286;742
285;744
286;746
286;748
286;750
287;752
286;754
286;756
286;758
287;760
287;762
287;764
287;766
287;768
287;770
287;772
287;774
287;776
287;778
288;780
287;782
287;784
288;786
288;788
288;790
288;792
288;794
288;796
288;798
288;800
288;802
288;804
288;806
288;808
289;811
289;813
289;815
289;817
289;819
289;821
289;823
289;825
290;827
290;829
290;831
290;833
290;835
290;837
291;839
291;841
292;843
293;845
293;847
293;849
294;851
294;854
295;856
295;858
296;860
296;862
297;864
297;866
298;868
299;870
299;872
300;874
300;876
301;878
302;880
302;882
303;884
303;886
304;888
304;890
305;892
305;894
305;896
305;898
305;900
305;902
305;904
305;906
305;908
304;910
304;912
303;914
302;916
302;918
301;920
300;922
300;924
299;926
299;928
298;930
297;932
297;934
296;936
296;939
296;941
295;943
294;945
294;947
294;949
293;951
292;953
293;955
292;957
292;959
291;961
291;963
291;965
291;967
291;969
290;971
290;973
290;975
290;977
290;979
289;982
289;984
289;986
289;988
288;990
288;992
287;994
286;996
286;998
285;1000
286;1002
285;1004
286;1006
287;1008
288;1010
291;1012
295;1014
299;1016
304;1018
309;1020
313;1022
316;1024
321;1026
324;1028
327;1030
329;1032
329;1034
328;1036
326;1038
324;1040
321;1042
318;1044
316;1046
313;1048
311;1050
309;1052
307;1054
305;1056
304;1058
304;1060
302;1062
302;1064
301;1067
300;1069
299;1071
299;1073
298;1075
297;1077
297;1079
296;1081
296;1083
295;1085
295;1087
294;1089
294;1091
294;1093
294;1095
293;1097
293;1099
293;1101
293;1103
293;1105
293;1107
292;1110
292;1112
292;1114
292;1116
292;1118
292;1120
292;1122
292;1124
292;1126
292;1128
292;1130
293;1132
292;1134
293;1136
292;1138
293;1140
293;1142
293;1144
294;1146
294;1148
294;1150
294;1152
294;1154
294;1156
294;1158
295;1160
295;1162
295;1164
295;1166
296;1168
296;1170
296;1172
296;1174
296;1176
297;1178
297;1180
297;1182
297;1184
297;1186
298;1188
298;1190
299;1192
299;1195
300;1197
300;1199
300;1201
301;1203
301;1205
302;1207
302;1209
303;1211
303;1213
304;1215
304;1217
305;1219
305;1221
306;1223
307;1225
308;1227
308;1229
309;1231
309;1233
310;1235
310;1238
311;1240
312;1242
312;1244
313;1246
313;1248
314;1250
315;1252
316;1254
316;1256
317;1258
317;1260
318;1262
318;1264
319;1266
319;1268
319;1270
320;1272
320;1274
320;1276
320;1278
320;1280
320;1282
319;1284
319;1286
319;1288
318;1290
317;1292
317;1294
316;1296
315;1298
314;1300
313;1302
312;1304
311;1306
310;1308
309;1310
307;1312
307;1314
305;1316
304;1318
303;1320
302;1323
300;1325
299;1327
298;1329
297;1331
296;1333
295;1335
294;1337
293;1339
293;1341
292;1343
291;1345
290;1347
289;1349
289;1351
288;1353
287;1355
287;1357
287;1359
286;1361
286;1363
285;1366
285;1368
285;1370
285;1372
284;1374
284;1376
283;1378
283;1380
283;1382
283;1384
283;1386
283;1388
283;1390
283;1392
283;1394
283;1396
283;1398
283;1400
283;1402
283;1404
283;1406
283;1408
283;1410
282;1412
283;1414
283;1416
283;1418
283;1420
283;1422
283;1424
283;1426
284;1428
284;1430
284;1432
284;1434
285;1436
284;1438
285;1440
285;1442
285;1444
285;1446
285;1448
285;1451
285;1453
285;1455
285;1457
285;1459
285;1461
286;1463
286;1465
286;1467
286;1469
286;1471
287;1473
286;1475
287;1477
287;1479
287;1481
287;1483
287;1485
287;1487
287;1489
287;1491
287;1494
287;1496
287;1498
287;1500
287;1502
287;1504
288;1506
287;1508
288;1510
288;1512
288;1514
288;1516
288;1518
288;1520
288;1522
289;1524
288;1526
289;1528
289;1530
289;1532
289;1534
289;1536
290;1538
290;1540
290;1542
291;1544
291;1546
292;1548
292;1550
293;1552
293;1554
294;1556
294;1558
295;1560
295;1562
296;1564
296;1566
297;1568
297;1570
298;1572
299;1574
300;1576
301;1579
301;1581
302;1583
302;1585
303;1587
303;1589
303;1591
304;1593
304;1595
304;1597
304;1599
305;1601
305;1603
305;1605
304;1607
304;1609
303;1611
303;1613
302;1615
302;1617
301;1619
300;1622
300;1624
299;1626
298;1628
298;1630
297;1632
297;1634
296;1636
296;1638
295;1640
294;1642
294;1644
294;1646
293;1648
293;1650
292;1652
292;1654
292;1656
292;1658
291;1660
291;1662
291;1664
290;1666
290;1668
290;1670
290;1672
290;1674
290;1676
290;1678
289;1680
289;1682
289;1684
289;1686
289;1688
288;1690
288;1692
287;1694
287;1696
286;1698
286;1700
285;1702
285;1704
285;1707
287;1709
288;1711
291;1713
294;1715
299;1717
303;1719
308;1721
313;1723
317;1725
321;1727
325;1729
327;1731
328;1733
327;1735
326;1737
323;1739
321;1741
318;1743
316;1745
313;1747
311;1750
309;1752
307;1754
305;1756
303;1758
302;1760
301;1762
300;1764
299;1766
298;1768
298;1770
297;1772
296;1774
296;1776
296;1778
295;1780
295;1782
294;1784
294;1786
294;1788
294;1790
293;1792
293;1794
293;1796
293;1798
293;1800
293;1802
293;1804
292;1806
292;1808
292;1810
292;1812
292;1814
292;1816
292;1818
292;1820
292;1822
292;1824
292;1826
292;1828
293;1830
293;1832
293;1835
293;1837
293;1839
293;1841
293;1843
293;1845
293;1847
294;1849
293;1851
294;1853
294;1855
294;1857
295;1859
294;1861
295;1863
295;1865
296;1867
296;1869
296;1871
297;1873
296;1875
297;1878
297;1880
297;1882
297;1884
298;1886
299;1888
299;1890
299;1892
300;1894
300;1896
300;1898
301;1900
301;1902
302;1904
302;1906
303;1908
303;1910
304;1912
304;1914
304;1916
305;1918
305;1920
306;1922
306;1924
307;1926
308;1928
308;1930
309;1932
310;1934
311;1936
311;1938
312;1940
313;1942
313;1944
314;1946
315;1948
315;1950
316;1952
316;1954
317;1956
317;1958
318;1960
318;1963
319;1965
319;1967
320;1969
320;1971
320;1973
321;1975
321;1977
321;1979
321;1981
321;1983
320;1985
320;1987
319;1989
319;1991
318;1993
318;1995
316;1997
316;1999
314;2001
313;2003
312;2006
311;2008
310;2010
309;2012
308;2014
307;2016
306;2018
304;2020
304;2022
302;2024
301;2026
300;2028
299;2030
298;2032
297;2034
296;2036
295;2038
294;2040
293;2042
292;2044
292;2046
291;2048
290;2050
290;2052
289;2054
288;2056
288;2058
288;2060
287;2062
286;2064
287;2066
286;2068
286;2070
285;2072
285;2074
285;2076
285;2078
285;2080
284;2082
284;2084
284;2086
284;2088
283;2091
283;2093
283;2095
283;2097
283;2099
283;2101
283;2103
283;2105
283;2107
283;2109
284;2111
284;2113
284;2115
284;2117
284;2119
284;2121
284;2123
284;2125
284;2127
284;2129
284;2131
284;2134
284;2136
285;2138
284;2140
285;2142
284;2144
285;2146
285;2148
285;2150
285;2152
286;2154
286;2156
286;2158
286;2160
286;2162
286;2164
286;2166
287;2168
286;2170
287;2172
287;2174
287;2176
287;2178
287;2180
287;2182
287;2184
287;2186
287;2188
287;2190
287;2192
288;2194
288;2196
288;2198
288;2200
288;2202
289;2204
289;2206
289;2208
290;2210
290;2212
290;2214
291;2216
291;2219
292;2221
292;2223
292;2225
293;2227
293;2229
294;2231
294;2233
295;2235
295;2237
297;2239
297;2241
298;2243
299;2245
299;2247
300;2249
300;2251
301;2253
301;2255
302;2257
302;2259
303;2262
303;2264
303;2266
303;2268
303;2270
303;2272
303;2274
302;2276
302;2278
301;2280
301;2282
300;2284
299;2286
299;2288
298;2290
298;2292
297;2294
296;2296
296;2298
295;2300
295;2302
294;2304
294;2306
293;2308
294;2310
293;2312
292;2314
292;2316
292;2318
292;2320
291;2322
291;2324
291;2326
291;2328
290;2330
290;2332
290;2334
289;2336
290;2338
289;2340
289;2342
289;2344
289;2347
288;2349
288;2351
288;2353
288;2355
288;2357
287;2359
286;2361
286;2363
286;2365
285;2367
285;2369
285;2371
286;2373
287;2375
289;2377
292;2379
295;2381
299;2383
304;2385
308;2387
313;2390
317;2392
321;2394
323;2396
325;2398
325;2400
324;2402
322;2404
320;2406
318;2408
315;2410
312;2412
310;2414
307;2416
305;2418
304;2420
302;2422
300;2424
299;2426
298;2428
298;2430
297;2432
297;2434
296;2436
296;2438
295;2440
295;2442
295;2444
294;2446
294;2448
294;2450
294;2452
293;2454
293;2456
293;2458
293;2460
293;2462
292;2464
293;2466
292;2468
293;2470
292;2472
292;2475
292;2477
293;2479
292;2481
292;2483
292;2485
292;2487
292;2489
292;2491
292;2493
292;2495
293;2497
292;2499
293;2501
293;2503
293;2505
293;2507
293;2509
294;2511
294;2513
294;2515
294;2518
294;2520
295;2522
295;2524
295;2526
295;2528
296;2530
296;2532
296;2534
296;2536
297;2538
297;2540
297;2542
298;2544
298;2546
298;2548
299;2550
299;2552
299;2554
299;2556
300;2558
300;2560
300;2562
301;2564
301;2566
302;2568
302;2570
303;2572
303;2574
303;2576
304;2578
304;2580
306;2582
305;2584
306;2586
307;2588
308;2590
308;2592
309;2594
309;2596
310;2598
311;2600
311;2603
312;2605
312;2607
313;2609
314;2611
314;2613
315;2615
316;2617
317;2619
316;2621
317;2623
317;2625
318;2627
319;2629
319;2631
319;2633
320;2635
320;2637
320;2639
321;2641
320;2643
320;2646
320;2648
320;2650
319;2652
319;2654
318;2656
318;2658
317;2660
317;2662
316;2664
314;2666
314;2668
313;2670
312;2672
311;2674
309;2676
308;2678
307;2680
306;2682
305;2684
304;2686
303;2688
302;2690
301;2692
300;2694
299;2696
298;2698
297;2700
296;2702
295;2704
294;2706
293;2708
292;2710
292;2712
291;2714
290;2716
290;2718
289;2720
289;2722
288;2724
287;2726
287;2728
287;2731
286;2733
286;2735
286;2737
285;2739
285;2741
285;2743
284;2745
284;2747
284;2749
284;2751
284;2753
284;2755
284;2757
284;2759
284;2761
284;2763
284;2765
284;2767
284;2769
284;2771
284;2774
284;2776
284;2778
284;2780
284;2782
284;2784
284;2786
284;2788
284;2790
285;2792
285;2794
285;2796
285;2798
285;2800
285;2802
285;2804
286;2806
286;2808
286;2810
286;2812
286;2814
286;2816
286;2818
286;2820
286;2822
287;2824
287;2826
287;2828
287;2830
287;2832
287;2834
287;2836
287;2838
287;2840
288;2842
287;2844
288;2846
287;2848
288;2850
288;2852
288;2854
288;2856
288;2859
288;2861
288;2863
289;2865
289;2867
289;2869
289;2871
290;2873
290;2875
291;2877
292;2879
292;2881
292;2883
293;2885
293;2887
293;2889
294;2891
294;2893
295;2895
295;2897
296;2899
297;2902
297;2904
298;2906
299;2908
300;2910
300;2912
301;2914
302;2916
302;2918
302;2920
303;2922
303;2924
304;2926
304;2928
304;2930
304;2932
304;2934
303;2936
303;2938
302;2940
303;2942
302;2944
301;2946
301;2948
300;2950
299;2952
299;2954
298;2956
297;2958
297;2960
296;2962
296;2964
295;2966
295;2968
295;2970
294;2972
293;2974
293;2976
293;2978
292;2980
292;2982
291;2984
291;2987
291;2989
290;2991
291;2993
290;2995
290;2997
289;2999
290;3001
289;3003
289;3005
289;3007
289;3009
289;3011
289;3013
289;3015
288;3017
288;3019
287;3021
287;3023
286;3025
286;3027
285;3030
285;3032
284;3034
285;3036
286;3038
287;3040
290;3042
292;3044
297;3046
301;3048
306;3050
310;3052
315;3054
320;3056
323;3058
326;3060
327;3062
327;3064
325;3066
324;3068
321;3070
320;3072
317;3074
315;3076
312;3078
310;3080
308;3082
306;3084
304;3086
303;3088
302;3090
301;3092
300;3094
300;3096
299;3098
298;3100
298;3102
297;3104
297;3106
296;3108
296;3110
295;3112
295;3115
294;3117
294;3119
293;3121
294;3123
293;3125
293;3127
293;3129
292;3131
293;3133
292;3135
293;3137
292;3139
293;3141
292;3143
293;3145
292;3147
292;3149
292;3151
292;3153
292;3155
293;3158
293;3160
293;3162
293;3164
293;3166
293;3168
293;3170
293;3172
293;3174
294;3176
294;3178
294;3180
295;3182
294;3184
294;3186
295;3188
295;3190
295;3192
295;3194
296;3196
296;3198
295;3200
296;3202
296;3204
297;3206
297;3208
297;3210
297;3212
298;3214
298;3216
298;3218
299;3220
299;3222
300;3224
300;3226
301;3228
300;3230
301;3232
301;3234
302;3236
303;3238
303;3240
304;3243
304;3245
305;3247
306;3249
306;3251
307;3253
307;3255
308;3257
308;3259
309;3261
310;3263
310;3265
311;3267
311;3269
313;3271
313;3273
314;3275
314;3277
315;3279
315;3281
316;3283
317;3286
317;3288
318;3290
318;3292
318;3294
319;3296
319;3298
320;3300
320;3302
320;3304
320;3306
320;3308
320;3310
320;3312
320;3314
319;3316
318;3318
318;3320
317;3322
317;3324
315;3326
315;3328
314;3330
313;3332
312;3334
311;3336
310;3338
309;3340
308;3342
306;3344
306;3346
304;3348
304;3350
302;3352
301;3354
300;3356
299;3358
298;3360
297;3362
296;3364
295;3366
294;3368
294;3371
292;3373
292;3375
291;3377
290;3379
290;3381
289;3383
289;3385
288;3387
288;3389
287;3391
287;3393
286;3395
286;3397
286;3399
286;3401
285;3403
285;3405
285;3407
285;3409
284;3411
284;3414
284;3416
284;3418
284;3420
284;3422
284;3424
284;3426
284;3428
284;3430
284;3432
284;3434
284;3436
284;3438
284;3440
284;3442
284;3444
284;3446
284;3448
284;3450
284;3452
284;3454
284;3456
284;3458
284;3460
284;3462
284;3464
285;3466
285;3468
285;3470
285;3472
285;3474
285;3476
285;3478
286;3480
286;3482
286;3484
286;3486
286;3488
286;3490
287;3492
286;3494
287;3496
287;3499
287;3501
287;3503
287;3505
287;3507
287;3509
288;3511
287;3513
288;3515
288;3517
288;3519
288;3521
288;3523
288;3525
288;3527
288;3529
288;3531
288;3533
288;3535
289;3537
289;3539
289;3542
290;3544
290;3546
291;3548
291;3550
291;3552
292;3554
293;3556
293;3558
293;3560
294;3562
294;3564
295;3566
295;3568
296;3570
297;3572
297;3574
298;3576
299;3578
299;3580
300;3582
300;3584
301;3586
301;3588
302;3590
302;3592
303;3594
303;3596
303;3598
303;3600
304;3602
304;3604
304;3606
304;3608
303;3610
303;3612
302;3614
302;3616
301;3618
301;3620
300;3622
300;3624
299;3627
298;3629
297;3631
297;3633
296;3635
295;3637
295;3639
294;3641
294;3643
293;3645
293;3647
292;3649
292;3651
292;3653
292;3655
291;3657
290;3659
291;3661
290;3663
290;3665
289;3667
290;3670
289;3672
289;3674
289;3676
289;3678
289;3680
288;3682
289;3684
288;3686
288;3688
288;3690
287;3692
287;3694
287;3696
286;3698
285;3700
285;3702
284;3704
284;3706
284;3708
285;3710
285;3712
286;3714
289;3716
293;3718
297;3720
302;3722
307;3724
311;3726
317;3728
320;3730
325;3732
327;3734
329;3736
328;3738
327;3740
325;3742
323;3744
320;3746
318;3748
315;3750
313;3752
311;3755
308;3757
307;3759
305;3761
304;3763
303;3765
302;3767
301;3769
301;3771
300;3773
299;3775
299;3777
298;3779
297;3781
296;3783
296;3785
295;3787
295;3789
295;3791
294;3793
294;3795
293;3798
293;3800
293;3802
293;3804
292;3806
292;3808
292;3810
292;3812
291;3814
291;3816
292;3818
292;3820
292;3822
291;3824
292;3826
292;3828
292;3830
292;3832
292;3834
292;3836
292;3838
292;3840
292;3842
292;3844
293;3846
292;3848
293;3850
293;3852
293;3854
293;3856
293;3858
293;3860
294;3862
294;3864
294;3866
294;3868
294;3870
295;3872
295;3874
295;3876
296;3878
296;3880
297;3883
297;3885
297;3887
297;3889
298;3891
298;3893
298;3895
298;3897
299;3899
299;3901
300;3903
300;3905
300;3907
301;3909
301;3911
302;3913
302;3915
303;3917
304;3919
304;3921
305;3923
305;3926
306;3928
306;3930
307;3932
308;3934
309;3936
309;3938
310;3940
310;3942
311;3944
312;3946
313;3948
313;3950
314;3952
315;3954
315;3956
316;3958
316;3960
317;3962
317;3964
318;3966
318;3968
318;3970
319;3972
319;3974
319;3976
319;3978
319;3980
319;3982
319;3984
319;3986
319;3988
319;3990
318;3992
317;3994
316;3996
316;3998
315;4000
314;4002
313;4004
312;4006
312;4008
310;4011
309;4013
308;4015
307;4017
306;4019
305;4021
304;4023
303;4025
302;4027
300;4029
300;4031
298;4033
297;4035
296;4037
296;4039
295;4041
294;4043
293;4045
292;4047
291;4049
290;4051
290;4054
289;4056
289;4058
288;4060
287;4062
287;4064
286;4066
286;4068
286;4070
285;4072
285;4074
285;4076
285;4078
285;4080
284;4082
284;4084
284;4086
284;4088
284;4090
284;4092
284;4094
284;4096
284;4098
284;4100
284;4102
284;4104
283;4106
284;4108
284;4110
284;4112
283;4114
284;4116
284;4118
284;4120
284;4122
284;4124
284;4126
284;4128
285;4130
284;4132
285;4134
285;4136
285;4139
285;4141
285;4143
285;4145
285;4147
285;4149
285;4151
285;4153
286;4155
286;4157
286;4159
286;4161
286;4163
287;4165
287;4167
287;4169
287;4171
287;4173
287;4175
287;4177
287;4179
287;4182
288;4184
288;4186
288;4188
288;4190
288;4192
288;4194
288;4196
288;4198
288;4200
288;4202
288;4204
288;4206
288;4208
288;4210
289;4212
289;4214
290;4216
290;4218
291;4220
291;4222
291;4224
292;4226
292;4228
293;4230
293;4232
294;4234
294;4236
294;4238
295;4240
295;4242
296;4244
297;4246
298;4248
298;4250
299;4252
300;4254
301;4256
301;4258
302;4260
302;4262
302;4264
303;4267
303;4269
304;4271
304;4273
304;4275
304;4277
304;4279
304;4281
303;4283
303;4285
302;4287
302;4289
301;4291
300;4293
300;4295
299;4297
299;4299
298;4301
297;4303
297;4305
297;4307
296;4310
295;4312
295;4314
295;4316
294;4318
294;4320
293;4322
293;4324
292;4326
292;4328
292;4330
291;4332
291;4334
291;4336
290;4338
290;4340
290;4342
290;4344
290;4346
290;4348
290;4350
290;4352
289;4354
289;4356
289;4358
289;4360
288;4362
289;4364
288;4366
287;4368
286;4370
286;4372
286;4374
285;4376
286;4378
285;4380
286;4382
287;4384
289;4386
292;4388
296;4390
300;4392
305;4395
309;4397
314;4399
318;4401
322;4403
325;4405
326;4407
327;4409
325;4411
324;4413
322;4415
319;4417
317;4419
314;4421
311;4423
309;4425
307;4427
305;4429
303;4431
302;4433
300;4435
300;4438
299;4440
298;4442
297;4444
297;4446
296;4448
296;4450
295;4452
295;4454
295;4456
295;4458
294;4460
294;4462
294;4464
293;4466
293;4468
293;4470
293;4472
293;4474
293;4476
292;4478
292;4480
292;4482
292;4484
292;4486
292;4488
293;4490
293;4492
293;4494
293;4496
293;4498
293;4500
293;4502
293;4504
293;4506
293;4508
293;4510
294;4512
294;4514
294;4516
294;4518
294;4520
294;4523
295;4525
295;4527
295;4529
295;4531
295;4533
296;4535
296;4537
296;4539
296;4541
296;4543
296;4545
297;4547
297;4549
297;4551
298;4553
298;4555
299;4557
298;4559
299;4561
300;4563
300;4566
300;4568
301;4570
301;4572
301;4574
302;4576
302;4578
303;4580
303;4582
304;4584
304;4586
305;4588
305;4590
306;4592
306;4594
307;4596
307;4598
308;4600
308;4602
309;4604
310;4606
310;4608
311;4610
311;4612
312;4614
313;4616
313;4618
314;4620
314;4622
315;4624
315;4626
316;4628
317;4630
317;4632
318;4634
318;4636
319;4638
319;4640
319;4642
320;4644
320;4646
320;4648
320;4651
320;4653
320;4655
320;4657
320;4659
319;4661
319;4663
319;4665
318;4667
317;4669
316;4671
315;4673
314;4675
313;4677
313;4679
311;4681
310;4683
309;4685
308;4687
307;4689
306;4691
305;4694
304;4696
302;4698
301;4700
300;4702
299;4704
298;4706
297;4708
296;4710
295;4712
295;4714
294;4716
293;4718
292;4720
292;4722
291;4724
290;4726
290;4728
289;4730
288;4732
288;4734
288;4736
287;4738
287;4740
287;4742
286;4744
286;4746
286;4748
286;4750
285;4752
286;4754
285;4756
285;4758
285;4760
285;4762
285;4764
285;4766
285;4768
284;4770
285;4772
284;4774
285;4776
284;4779
284;4781
284;4783
284;4785
284;4787
284;4789
285;4791
284;4793
285;4795
285;4797
285;4799
285;4801
285;4803
285;4805
286;4807
285;4809
286;4811
286;4813
286;4815
286;4817
286;4819
286;4822
287;4824
287;4826
287;4828
287;4830
287;4832
287;4834
287;4836
287;4838
287;4840
287;4842
288;4844
288;4846
288;4848
288;4850
288;4852
288;4854
288;4856
289;4858
288;4860
289;4862
289;4864
289;4866
289;4868
289;4870
289;4872
289;4874
290;4876
290;4878
291;4880
291;4882
292;4884
292;4886
293;4888
293;4890
293;4892
294;4894
294;4896
295;4898
295;4900
296;4902
297;4904
297;4907
298;4909
298;4911
299;4913
300;4915
301;4917
301;4919
302;4921
302;4923
302;4925
303;4927
303;4929
304;4931
304;4933
304;4935
304;4937
304;4939
303;4941
303;4943
303;4945
302;4947
302;4950
301;4952
300;4954
299;4956
299;4958
298;4960
298;4962
297;4964
297;4966
296;4968
295;4970
295;4972
295;4974
294;4976
294;4978
294;4980
293;4982
293;4984
292;4986
292;4988
292;4990
292;4992
292;4994
291;4996
291;4998
291;5000
291;5002
290;5004
290;5006
290;5008
290;5010
290;5012
289;5014
289;5016
289;5018
289;5020
288;5022
288;5024
287;5026
288;5028
287;5030
286;5032
286;5035
286;5037
286;5039
286;5041
288;5043
289;5045
292;5047
296;5049
300;5051
304;5053
308;5055
313;5057
317;5059
320;5061
323;5063
325;5065
325;5067
324;5069
322;5071
320;5073
317;5075
315;5078
312;5080
310;5082
308;5084
306;5086
303;5088
302;5090
300;5092
299;5094
298;5096
298;5098
297;5100
297;5102
296;5104
296;5106
295;5108
295;5110
295;5112
294;5114
295;5116
294;5118
294;5120
294;5122
293;5124
293;5126
293;5128
293;5130
293;5132
293;5134
293;5136
293;5138
293;5140
293;5142
293;5144
293;5146
292;5148
293;5150
293;5152
293;5154
293;5156
293;5158
293;5160
293;5163
293;5165
293;5167
294;5169
294;5171
294;5173
294;5175
294;5177
294;5179
295;5181
295;5183
295;5185
295;5187
296;5189
296;5191
296;5193
296;5195
296;5197
296;5199
297;5201
297;5203
297;5206
297;5208
298;5210
298;5212
298;5214
299;5216
299;5218
299;5220
300;5222
300;5224
300;5226
301;5228
301;5230
302;5232
302;5234
303;5236
303;5238
303;5240
304;5242
304;5244
305;5246
305;5248
305;5250
306;5252
306;5254
307;5256
308;5258
308;5260
309;5262
310;5264
311;5266
311;5268
312;5270
312;5272
313;5274
313;5276
314;5278
314;5280
315;5282
316;5284
316;5286
317;5288
317;5291
317;5293
318;5295
318;5297
319;5299
319;5301
319;5303
320;5305
320;5307
320;5309
320;5311
320;5313
319;5315
319;5317
319;5319
319;5321
318;5323
317;5325
317;5327
316;5329
315;5331
314;5334
313;5336
312;5338
311;5340
310;5342
309;5344
308;5346
307;5348
306;5350
305;5352
303;5354
303;5356
301;5358
300;5360
299;5362
298;5364
297;5366
296;5368
295;5370
294;5372
293;5374
293;5376
292;5378
291;5380
291;5382
290;5384
290;5386
289;5388
288;5390
288;5392
288;5394
287;5396
287;5398
286;5400
286;5402
286;5404
286;5406
285;5408
285;5410
285;5412
284;5414
284;5416
284;5419
284;5421
284;5423
284;5425
284;5427
284;5429
284;5431
284;5433
284;5435
284;5437
284;5439
284;5441
284;5443
284;5445
284;5447
284;5449
284;5451
285;5453
285;5455
285;5457
285;5459
285;5462
285;5464
285;5466
285;5468
286;5470
285;5472
286;5474
286;5476
286;5478
286;5480
286;5482
286;5484
287;5486
286;5488
287;5490
286;5492
287;5494
287;5496
287;5498
287;5500
287;5502
288;5504
288;5506
288;5508
288;5510
288;5512
288;5514
288;5516
288;5518
288;5520
288;5522
288;5524
288;5526
288;5528
288;5530
289;5532
289;5534
290;5536
290;5538
290;5540
291;5542
291;5544
292;5547
292;5549
292;5551
293;5553
293;5555
294;5557
294;5559
295;5561
295;5563
296;5565
296;5567
297;5569
298;5571
299;5573
300;5575
300;5577
300;5579
301;5581
301;5583
302;5585
302;5587
303;5590
303;5592
303;5594
303;5596
304;5598
304;5600
303;5602
303;5604
302;5606
302;5608
302;5610
301;5612
300;5614
300;5616
299;5618
299;5620
298;5622
297;5624
297;5626
296;5628
296;5630
295;5632
295;5634
294;5636
294;5638
293;5640
293;5642
292;5644
292;5646
292;5648
292;5650
291;5652
291;5654
291;5656
291;5658
290;5660
290;5662
290;5664
290;5666
290;5668
290;5670
289;5672
289;5675
289;5677
289;5679
289;5681
288;5683
289;5685
287;5687
287;5689
287;5691
286;5693
286;5695
286;5697
286;5699
285;5701
286;5703
286;5705
288;5707
290;5709
294;5711
298;5713
302;5715
307;5718
311;5720
316;5722
320;5724
323;5726
326;5728
327;5730
326;5732
324;5734
322;5736
320;5738
317;5740
315;5742
312;5744
309;5746
307;5748
305;5750
303;5752
302;5754
301;5756
300;5758
300;5760
299;5762
299;5764
298;5766
297;5768
297;5770
297;5772
296;5774
295;5776
295;5778
294;5780
294;5782
294;5784
294;5786
293;5788
293;5790
293;5792
293;5794
293;5796
293;5798
292;5800
292;5803
292;5805
292;5807
292;5809
292;5811
292;5813
292;5815
292;5817
292;5819
292;5821
292;5823
292;5825
292;5827
292;5829
292;5831
292;5833
292;5835
293;5837
293;5839
293;5841
294;5843
294;5846
294;5848
294;5850
294;5852
294;5854
295;5856
295;5858
295;5860
295;5862
296;5864
296;5866
296;5868
297;5870
297;5872
297;5874
298;5876
298;5878
298;5880
298;5882
299;5884
299;5886
299;5888
300;5890
300;5892
301;5894
300;5896
301;5898
302;5900
302;5902
303;5904
304;5906
304;5908
305;5910
305;5912
305;5914
306;5916
307;5918
307;5920
308;5922
308;5924
309;5926
309;5928
310;5931
311;5933
311;5935
312;5937
313;5939
313;5941
314;5943
315;5945
315;5947
316;5949
317;5951
317;5953
317;5955
318;5957
318;5959
319;5961
319;5963
319;5965
320;5967
320;5969
320;5971
320;5974
320;5976
320;5978
320;5980
320;5982
319;5984
319;5986
318;5988
317;5990
316;5992
315;5994
314;5996
314;5998
312;6000
311;6002
310;6004
309;6006
308;6008
307;6010
306;6012
305;6014
304;6016
303;6018
302;6020
301;6022
300;6024
299;6026
298;6028
297;6030
296;6032
295;6034
294;6036
293;6038
293;6040
292;6042
291;6044
290;6046
290;6048
289;6050
288;6052
288;6054
288;6056
287;6059
286;6061
286;6063
286;6065
286;6067
285;6069
285;6071
285;6073
284;6075
285;6077
284;6079
284;6081
284;6083
284;6085
284;6087
284;6089
284;6091
284;6093
284;6095
284;6097
284;6099
284;6102
284;6104
284;6106
284;6108
284;6110
284;6112
284;6114
284;6116
284;6118
284;6120
284;6122
284;6124
284;6126
285;6128
284;6130
285;6132
285;6134
285;6136
285;6138
285;6140
285;6142
285;6144
286;6146
286;6148
286;6150
286;6152
286;6154
286;6156
286;6158
286;6160
287;6162
287;6164
287;6166
287;6168
287;6170
287;6172
287;6174
288;6176
288;6178
288;6180
288;6182
288;6184
288;6187
288;6189
288;6191
288;6193
288;6195
288;6197
288;6199
289;6201
288;6203
289;6205
288;6207
289;6209
289;6211
289;6213
289;6215
289;6217
289;6219
289;6221
289;6223
289;6225
289;6227
290;6230
290;6232
290;6234
290;6236
290;6238
290;6240
290;6242
290;6244
290;6246
291;6248
290;6250
291;6252
291;6254
291;6256
292;6258
293;6260
293;6262
294;6264
294;6266
295;6268
295;6270
295;6272
296;6274
296;6276
297;6278
297;6280
297;6282
298;6284
299;6286
299;6288
300;6290
301;6292
301;6294
302;6296
303;6298
303;6300
303;6302
304;6304
304;6306
304;6308
304;6310
305;6312
305;6315
305;6317
306;6319
305;6321
305;6323
304;6325
304;6327
304;6329
303;6331
303;6333
302;6335
301;6337
300;6339
300;6341
299;6343
299;6345
298;6347
298;6349
297;6351
296;6353
296;6355
295;6358
295;6360
294;6362
294;6364
294;6366
293;6368
293;6370
293;6372
292;6374
292;6376
292;6378
291;6380
291;6382
291;6384
291;6386
291;6388
290;6390
291;6392
290;6394
290;6396
290;6398
290;6400
290;6402
289;6404
289;6406
289;6408
288;6410
287;6412
287;6414
286;6416
286;6418
286;6420
286;6422
286;6424
286;6426
288;6428
290;6430
294;6432
298;6434
302;6436
307;6438
312;6440
316;6443
321;6445
325;6447
328;6449
329;6451
329;6453
328;6455
326;6457
324;6459
321;6461
318;6463
315;6465
313;6467
311;6469
309;6471
307;6473
306;6475
304;6477
303;6479
302;6481
302;6483
301;6486
300;6488
299;6490
298;6492
298;6494
297;6496
297;6498
296;6500
296;6502
295;6504
295;6506
295;6508
294;6510
294;6512
293;6514
293;6516
293;6518
293;6520
293;6522
293;6524
292;6526
292;6528
293;6530
292;6532
292;6534
292;6536
292;6538
292;6540
293;6542
292;6544
292;6546
293;6548
293;6550
293;6552
293;6554
293;6556
293;6558
293;6560
293;6562
294;6564
294;6566
294;6568
294;6571
294;6573
294;6575
294;6577
294;6579
295;6581
295;6583
295;6585
295;6587
296;6589
296;6591
296;6593
296;6595
297;6597
297;6599
297;6601
298;6603
298;6605
298;6607
299;6609
299;6611
299;6614
300;6616
300;6618
301;6620
301;6622
302;6624
302;6626
302;6628
303;6630
303;6632
304;6634
304;6636
305;6638
305;6640
306;6642
307;6644
307;6646
308;6648
309;6650
309;6652
310;6654
310;6656
311;6658
311;6660
312;6662
313;6664
313;6666
314;6668
315;6670
315;6672
316;6674
316;6676
317;6678
317;6680
317;6682
318;6684
319;6686
319;6688
319;6690
319;6692
319;6694
319;6696
320;6699
319;6701
319;6703
319;6705
318;6707
318;6709
317;6711
317;6713
316;6715
315;6717
314;6719
313;6721
312;6723
311;6725
310;6727
309;6729
307;6731
306;6733
305;6735
304;6737
303;6739
301;6742
301;6744
300;6746
299;6748
297;6750
296;6752
296;6754
295;6756
294;6758
293;6760
292;6762
291;6764
291;6766
290;6768
289;6770
289;6772
288;6774
288;6776
287;6778
287;6780
286;6782
286;6784
286;6786
285;6788
285;6790
285;6792
285;6794
284;6796
284;6798
284;6800
284;6802
284;6804
284;6806
284;6808
283;6810
283;6812
283;6814
283;6816
283;6818
283;6820
283;6822
283;6824
283;6827
283;6829
283;6831
283;6833
283;6835
284;6837
284;6839
284;6841
284;6843
284;6845
284;6847
285;6849
284;6851
285;6853
284;6855
285;6857
285;6859
285;6861
285;6863
285;6865
285;6867
286;6870
286;6872
286;6874
286;6876
286;6878
286;6880
286;6882
286;6884
287;6886
287;6888
287;6890
287;6892
287;6894
287;6896
287;6898
287;6900
287;6902
287;6904
287;6906
288;6908
288;6910
288;6912
288;6914
288;6916
289;6918
288;6920
289;6922
288;6924
289;6926
288;6928
288;6930
289;6932
289;6934
289;6936
288;6938
289;6940
289;6942
289;6944
289;6946
289;6948
289;6950
289;6952
289;6955
290;6957
289;6959
290;6961
290;6963
290;6965
290;6967
290;6969
291;6971
290;6973
291;6975
290;6977
291;6979
291;6981
291;6983
291;6985
291;6987
291;6989
291;6991
291;6993
291;6995
292;6998
292;7000
292;7002
292;7004
292;7006
292;7008
292;7010
292;7012
292;7014
292;7016
292;7018
292;7020
292;7022
293;7024
292;7026
293;7028
293;7030
293;7032
293;7034
293;7036
293;7038
293;7040
293;7042
293;7044
293;7046
293;7048
293;7050
294;7052
294;7054
294;7056
294;7058
294;7060
294;7062
294;7064
294;7066
294;7068
294;7070
294;7072
295;7074
294;7076
295;7078
294;7080
295;7083
295;7085
295;7087
294;7089
295;7091
295;7093
295;7095
294;7097
294;7099
295;7101
294;7103
295;7105
294;7107
295;7109
295;7111
295;7113
295;7115
295;7117
295;7119
295;7121
295;7123
295;7126
295;7128
295;7130
296;7132
296;7134
296;7136
296;7138
296;7140
296;7142
296;7144
296;7146
296;7148
296;7150
296;7152
296;7154
296;7156
297;7158
296;7160
296;7162
296;7164
297;7166
297;7168
296;7170
297;7172
296;7174
297;7176
296;7178
297;7180
296;7182
297;7184
296;7186
297;7188
296;7190
296;7192
297;7194
297;7196
297;7198
297;7200
297;7202
298;7204
298;7206
298;7208
299;7211
298;7213
299;7215
299;7217
299;7219
300;7221
300;7223
301;7225
300;7227
301;7229
301;7231
301;7233
301;7235
301;7237
301;7239
302;7241
302;7243
302;7245
303;7247
302;7249
303;7251
302;7254
302;7256
302;7258
302;7260
301;7262
302;7264
301;7266
301;7268
301;7270
301;7272
300;7274
300;7276
299;7278
299;7280
299;7282
299;7284
299;7286
298;7288
299;7290
298;7292
298;7294
298;7296
298;7298
298;7300
297;7302
297;7304
297;7306
297;7308
297;7310
297;7312
297;7314
297;7316
297;7318
297;7320
297;7322
296;7324
296;7326
295;7328
295;7330
294;7332
294;7334
294;7336
294;7339
294;7341
294;7343
296;7345
297;7347
300;7349
304;7351
308;7353
312;7355
317;7357
321;7359
326;7361
330;7363
332;7365
334;7367
334;7369
333;7371
330;7373
328;7375
325;7377
323;7379
320;7382
317;7384
315;7386
313;7388
311;7390
309;7392
308;7394
307;7396
306;7398
305;7400
304;7402
303;7404
303;7406
302;7408
302;7410
301;7412
301;7414
300;7416
300;7418
299;7420
298;7422
298;7424
298;7426
298;7428
297;7430
297;7432
297;7434
296;7436
297;7438
296;7440
297;7442
296;7444
296;7446
296;7448
296;7450
295;7452
295;7454
296;7456
295;7458
296;7460
295;7462
295;7464
295;7467
295;7469
295;7471
295;7473
295;7475
295;7477
295;7479
294;7481
295;7483
295;7485
295;7487
295;7489
296;7491
295;7493
296;7495
296;7497
296;7499
296;7501
296;7503
296;7505
297;7507
297;7510
297;7512
297;7514
297;7516
298;7518
298;7520
298;7522
298;7524
299;7526
299;7528
299;7530
299;7532
300;7534
300;7536
301;7538
301;7540
301;7542
302;7544
302;7546
303;7548
303;7550
303;7552
304;7554
304;7556
305;7558
305;7560
306;7562
306;7564
307;7566
308;7568
308;7570
309;7572
309;7574
310;7576
311;7578
311;7580
312;7582
312;7584
313;7586
314;7588
314;7590
315;7592
315;7595
316;7597
316;7599
317;7601
317;7603
317;7605
318;7607
318;7609
318;7611
319;7613
318;7615
319;7617
319;7619
319;7621
318;7623
319;7625
318;7627
317;7629
317;7631
316;7633
315;7635
315;7638
314;7640
313;7642
312;7644
311;7646
310;7648
308;7650
308;7652
306;7654
305;7656
304;7658
303;7660
302;7662
301;7664
300;7666
299;7668
298;7670
297;7672
296;7674
295;7676
294;7678
293;7680
292;7682
291;7684
291;7686
290;7688
289;7690
289;7692
288;7694
288;7696
287;7698
287;7700
286;7702
286;7704
285;7706
285;7708
285;7710
284;7712
284;7714
284;7716
283;7718
283;7720
283;7723
283;7725
283;7727
283;7729
283;7731
283;7733
283;7735
282;7737
283;7739
282;7741
283;7743
283;7745
283;7747
283;7749
283;7751
283;7753
282;7755
283;7757
283;7759
283;7761
283;7763
283;7766
283;7768
283;7770
284;7772
284;7774
284;7776
284;7778
284;7780
284;7782
284;7784
284;7786
285;7788
285;7790
285;7792
285;7794
285;7796
285;7798
286;7800
286;7802
286;7804
286;7806
286;7808
286;7810
286;7812
286;7814
286;7816
286;7818
286;7820
286;7822
287;7824
287;7826
287;7828
287;7830
287;7832
287;7834
288;7836
287;7838
288;7840
288;7842
288;7844
288;7846
288;7848
288;7851
288;7853
289;7855
288;7857
288;7859
289;7861
289;7863
289;7865
289;7867
289;7869
289;7871
289;7873
289;7875
289;7877
289;7879
290;7881
290;7883
290;7885
290;7887
290;7889
290;7891
290;7894
290;7896
290;7898
291;7900
291;7902
291;7904
291;7906
291;7908
291;7910
291;7912
291;7914
292;7916
292;7918
292;7920
292;7922
292;7924
292;7926
292;7928
292;7930
292;7932
292;7934
292;7936
292;7938
293;7940
292;7942
293;7944
293;7946
293;7948
294;7950
294;7952
294;7954
294;7956
295;7958
295;7960
296;7962
296;7964
296;7966
296;7968
297;7970
297;7972
298;7974
298;7976
298;7979
299;7981
298;7983
299;7985
299;7987
299;7989
299;7991
299;7993
299;7995
300;7997
300;7999
300;8001
300;8003
300;8005
300;8007
299;8009
299;8011
299;8013
299;8015
298;8017
298;8019
298;8022
298;8024
297;8026
297;8028
297;8030
296;8032
296;8034
296;8036
296;8038
296;8040
296;8042
295;8044
295;8046
295;8048
295;8050
295;8052
295;8054
295;8056
295;8058
295;8060
295;8062
295;8064
295;8066
295;8068
295;8070
295;8072
295;8074
294;8076
294;8078
293;8080
293;8082
292;8084
292;8086
292;8088
292;8090
292;8092
292;8094
294;8096
296;8098
299;8100
302;8102
307;8104
311;8107
315;8109
319;8111
323;8113
326;8115
328;8117
330;8119
330;8121
329;8123
326;8125
324;8127
321;8129
319;8131
316;8133
314;8135
312;8137
310;8139
308;8141
306;8143
305;8145
304;8147
303;8150
302;8152
302;8154
301;8156
301;8158
300;8160
300;8162
299;8164
299;8166
299;8168
298;8170
298;8172
297;8174
297;8176
297;8178
297;8180
296;8182
296;8184
296;8186
296;8188
296;8190
296;8192
296;8194
295;8196
295;8198
296;8200
295;8202
296;8204
295;8206
295;8208
295;8210
295;8212
296;8214
295;8216
296;8218
295;8220
295;8222
295;8224
295;8226
295;8228
296;8230
295;8232
296;8235
296;8237
296;8239
296;8241
296;8243
297;8245
296;8247
297;8249
297;8251
298;8253
297;8255
298;8257
298;8259
298;8261
298;8263
299;8265
299;8267
299;8269
299;8271
300;8273
300;8275
300;8278
300;8280
300;8282
301;8284
301;8286
302;8288
302;8290
302;8292
303;8294
303;8296
304;8298
304;8300
305;8302
305;8304
306;8306
306;8308
307;8310
307;8312
308;8314
308;8316
309;8318
310;8320
310;8322
311;8324
311;8326
312;8328
312;8330
313;8332
314;8334
314;8336
315;8338
315;8340
316;8342
316;8344
317;8346
317;8348
318;8350
318;8352
319;8354
319;8356
319;8358
320;8360
320;8363
320;8365
320;8367
320;8369
320;8371
319;8373
319;8375
318;8377
317;8379
316;8381
316;8383
315;8385
314;8387
313;8389
312;8391
311;8393
310;8395
309;8397
308;8399
307;8401
305;8403
304;8406
303;8408
302;8410
300;8412
300;8414
298;8416
297;8418
296;8420
295;8422
294;8424
293;8426
292;8428
291;8430
291;8432
290;8434
289;8436
288;8438
288;8440
287;8442
287;8444
286;8446
286;8448
285;8450
285;8452
284;8454
284;8456
283;8458
283;8460
282;8462
283;8464
282;8466
282;8468
282;8470
282;8472
282;8474
282;8476
282;8478
282;8480
282;8482
282;8484
282;8486
281;8488
282;8491
281;8493
282;8495
281;8497
282;8499
281;8501
282;8503
282;8505
282;8507
282;8509
282;8511
282;8513
282;8515
283;8517
283;8519
283;8521
283;8523
283;8525
283;8527
283;8529
284;8531
284;8534
284;8536
284;8538
284;8540
284;8542
284;8544
285;8546
285;8548
285;8550
285;8552
285;8554
286;8556
286;8558
286;8560
286;8562
286;8564
286;8566
287;8568
286;8570
287;8572
286;8574
287;8576
287;8578
287;8580
287;8582
287;8584
287;8586
287;8588
287;8590
287;8592
287;8594
288;8596
288;8598
288;8600
288;8602
288;8604
288;8606
288;8608
288;8610
288;8612
289;8614
288;8616
289;8619
289;8621
289;8623
288;8625
289;8627
289;8629
290;8631
289;8633
290;8635
289;8637
290;8639
290;8641
290;8643
290;8645
290;8647
290;8649
290;8651
291;8653
290;8655
291;8657
291;8659
291;8662
291;8664
291;8666
291;8668
291;8670
291;8672
292;8674
292;8676
292;8678
292;8680
292;8682
292;8684
292;8686
292;8688
292;8690
292;8692
292;8694
292;8696
293;8698
293;8700
293;8702
293;8704
293;8706
293;8708
293;8710
293;8712
293;8714
293;8716
293;8718
293;8720
294;8722
294;8724
294;8726
294;8728
295;8730
295;8732
296;8734
296;8736
296;8738
296;8740
297;8742
297;8744
298;8747
298;8749
298;8751
298;8753
299;8755
299;8757
299;8759
299;8761
300;8763
300;8765
300;8767
300;8769
300;8771
301;8773
301;8775
301;8777
301;8779
301;8781
301;8783
301;8785
301;8787
301;8790
301;8792
300;8794
300;8796
299;8798
299;8800
298;8802
298;8804
298;8806
298;8808
297;8810
297;8812
297;8814
297;8816
297;8818
296;8820
296;8822
296;8824
296;8826
296;8828
296;8830
296;8832
296;8834
296;8836
295;8838
295;8840
295;8842
295;8844
295;8846
295;8848
295;8850
294;8852
294;8854
294;8856
293;8858
293;8860
293;8862
292;8864
292;8866
292;8868
291;8870
291;8872
292;8875
294;8877
296;8879
299;8881
303;8883
308;8885
312;8887
317;8889
322;8891
326;8893
329;8895
332;8897
334;8899
333;8901
332;8903
330;8905
328;8907
326;8909
322;8911
320;8913
318;8915
315;8918
313;8920
311;8922
310;8924
309;8926
308;8928
306;8930
305;8932
305;8934
304;8936
303;8938
303;8940
302;8942
302;8944
301;8946
300;8948
300;8950
299;8952
299;8954
298;8956
298;8958
297;8960
297;8962
297;8964
296;8966
296;8968
296;8970
296;8972
295;8974
295;8976
295;8978
295;8980
295;8982
295;8984
294;8986
295;8988
294;8990
294;8992
294;8994
294;8996
294;8998
294;9000
295;9003
294;9005
294;9007
294;9009
295;9011
294;9013
295;9015
295;9017
295;9019
295;9021
295;9023
295;9025
295;9027
296;9029
295;9031
296;9033
296;9035
296;9037
296;9039
296;9041
297;9043
297;9046
297;9048
297;9050
298;9052
298;9054
299;9056
298;9058
299;9060
299;9062
299;9064
300;9066
300;9068
301;9070
301;9072
302;9074
302;9076
302;9078
302;9080
303;9082
304;9084
304;9086
304;9088
305;9090
306;9092
306;9094
307;9096
307;9098
308;9100
309;9102
310;9104
310;9106
311;9108
311;9110
312;9112
312;9114
313;9116
314;9118
315;9120
315;9122
316;9124
317;9126
317;9128
318;9131
318;9133
319;9135
319;9137
319;9139
319;9141
320;9143
320;9145
320;9147
320;9149
320;9151
320;9153
319;9155
319;9157
319;9159
318;9161
317;9163
316;9165
315;9167
314;9169
313;9171
312;9174
311;9176
310;9178
309;9180
308;9182
306;9184
305;9186
304;9188
303;9190
302;9192
301;9194
300;9196
298;9198
297;9200
296;9202
295;9204
294;9206
293;9208
292;9210
291;9212
291;9214
290;9216
290;9218
289;9220
288;9222
288;9224
287;9226
287;9228
286;9230
286;9232
285;9234
285;9236
284;9238
284;9240
284;9242
284;9244
283;9246
283;9248
283;9250
282;9252
282;9254
282;9256
282;9259
282;9261
282;9263
282;9265
282;9267
282;9269
282;9271
282;9273
282;9275
282;9277
282;9279
283;9281
282;9283
282;9285
283;9287
283;9289
283;9291
283;9293
283;9295
283;9297
283;9299
283;9302
283;9304
283;9306
284;9308
284;9310
284;9312
284;9314
285;9316
284;9318
285;9320
285;9322
285;9324
285;9326
286;9328
286;9330
286;9332
286;9334
286;9336
286;9338
286;9340
286;9342
286;9344
286;9346
287;9348
287;9350
287;9352
287;9354
287;9356
287;9358
287;9360
287;9362
288;9364
288;9366
288;9368
288;9370
288;9372
288;9374
288;9376
288;9378
288;9380
289;9382
289;9384
288;9387
289;9389
289;9391
289;9393
289;9395
289;9397
289;9399
289;9401
289;9403
289;9405
290;9407
290;9409
290;9411
290;9413
290;9415
290;9417
291;9419
291;9421
291;9423
291;9425
291;9427
291;9430
291;9432
291;9434
291;9436
291;9438
291;9440
292;9442
291;9444
291;9446
292;9448
292;9450
292;9452
292;9454
293;9456
292;9458
292;9460
293;9462
292;9464
293;9466
293;9468
293;9470
293;9472
293;9474
293;9476
293;9478
293;9480
293;9482
293;9484
293;9486
294;9488
294;9490
294;9492
294;9494
294;9496
294;9498
294;9500
294;9502
294;9504
295;9506
295;9508
295;9510
295;9512
296;9515
296;9517
297;9519
297;9521
297;9523
297;9525
297;9527
298;9529
298;9531
298;9533
299;9535
299;9537
300;9539
300;9541
300;9543
300;9545
301;9547
301;9549
301;9551
301;9553
301;9555
301;9558
302;9560
301;9562
302;9564
302;9566
301;9568
301;9570
301;9572
301;9574
300;9576
300;9578
300;9580
300;9582
299;9584
299;9586
299;9588
298;9590
298;9592
298;9594
297;9596
297;9598
297;9600
297;9602
297;9604
297;9606
297;9608
296;9610
296;9612
296;9614
296;9616
295;9618
295;9620
296;9622
295;9624
295;9626
295;9628
295;9630
295;9632
295;9634
294;9636
294;9638
293;9640
293;9643
292;9645
292;9647
291;9649
291;9651
291;9653
291;9655
291;9657
292;9659
294;9661
297;9663
301;9665
305;9667
310;9669
315;9671
319;9673
324;9675
328;9677
331;9679
333;9681
334;9683
333;9686
331;9688
329;9690
327;9692
324;9694
321;9696
319;9698
316;9700
314;9702
312;9704
311;9706
309;9708
308;9710
307;9712
306;9714
305;9716
304;9718
304;9720
303;9722
302;9724
301;9726
301;9728
301;9730
300;9732
299;9734
299;9736
299;9738
298;9740
298;9742
297;9744
296;9746
297;9748
296;9750
296;9752
295;9754
295;9756
295;9758
295;9760
295;9762
295;9764
295;9766
294;9768
295;9771
294;9773
294;9775
294;9777
294;9779
294;9781
294;9783
294;9785
294;9787
294;9789
294;9791
294;9793
294;9795
294;9797
294;9799
294;9801
294;9803
294;9805
294;9807
295;9809
295;9811
295;9814
295;9816
295;9818
295;9820
296;9822
296;9824
296;9826
296;9828
296;9830
297;9832
297;9834
297;9836
297;9838
298;9840
298;9842
298;9844
299;9846
299;9848
300;9850
300;9852
300;9854
301;9856
301;9858
302;9860
301;9862
302;9864
303;9866
303;9868
304;9870
304;9872
305;9874
306;9876
306;9878
307;9880
308;9882
308;9884
309;9886
310;9888
311;9890
311;9892
312;9894
312;9896
313;9899
314;9901
314;9903
315;9905
315;9907
316;9909
316;9911
317;9913
317;9915
318;9917
318;9919
319;9921
319;9923
320;9925
320;9927
320;9929
320;9931
320;9933
320;9935
319;9937
319;9939
318;9942
318;9944
317;9946
317;9948
315;9950
314;9952
313;9954
312;9956
311;9958
310;9960
309;9962
308;9964
307;9966
305;9968
304;9970
303;9972
302;9974
301;9976
299;9978
298;9980
297;9982
296;9984
295;9986
294;9988
293;9990
292;9992
292;9994
290;9996
290;9998
289;10000
288;10002
287;10004
287;10006
286;10008
286;10010
285;10012
285;10014
284;10016
284;10018
284;10020
283;10022
283;10024
282;10027
282;10029
282;10031
282;10033
282;10035
282;10037
281;10039
281;10041
281;10043
281;10045
281;10047
281;10049
281;10051
281;10053
281;10055
280;10057
281;10059
281;10061
281;10063
281;10065
281;10067
281;10070
282;10072
282;10074
282;10076
282;10078
282;10080
282;10082
282;10084
282;10086
283;10088
283;10090
283;10092
283;10094
283;10096
283;10098
283;10100
284;10102
283;10104
284;10106
284;10108
284;10110
284;10112
284;10114
285;10116
284;10118
285;10120
285;10122
285;10124
285;10126
285;10128
286;10130
285;10132
286;10134
286;10136
286;10138
286;10140
286;10142
287;10144
287;10146
287;10148
287;10150
287;10152
287;10155
287;10157
287;10159
288;10161
287;10163
288;10165
288;10167
288;10169
288;10171
288;10173
288;10175
288;10177
289;10179
288;10181
289;10183
289;10185
289;10187
289;10189
289;10191
289;10193
289;10195
289;10198
289;10200
290;10202
289;10204
290;10206
290;10208
290;10210
290;10212
290;10214
290;10216
290;10218
291;10220
290;10222
291;10224
291;10226
291;10228
291;10230
291;10232
291;10234
291;10236
292;10238
292;10240
292;10242
292;10244
292;10246
292;10248
292;10250
293;10252
292;10254
293;10256
292;10258
293;10260
292;10262
292;10264
292;10266
293;10268
293;10270
293;10272
294;10274
294;10276
294;10278
294;10280
295;10283
295;10285
295;10287
296;10289
296;10291
297;10293
297;10295
297;10297
298;10299
298;10301
298;10303
299;10305
299;10307
299;10309
299;10311
299;10313
300;10315
300;10317
300;10319
300;10321
301;10323
300;10326
301;10328
301;10330
300;10332
300;10334
300;10336
300;10338
299;10340
299;10342
299;10344
299;10346
298;10348
298;10350
298;10352
297;10354
297;10356
297;10358
297;10360
297;10362
296;10364
297;10366
296;10368
296;10370
296;10372
296;10374
296;10376
295;10378
296;10380
295;10382
295;10384
295;10386
295;10388
295;10390
295;10392
295;10394
295;10396
295;10398
294;10400
294;10402
294;10404
293;10406
293;10408
292;10411
292;10413
292;10415
291;10417
292;10419
293;10421
294;10423
297;10425
300;10427
304;10429
308;10431
312;10433
317;10435
321;10437
325;10439
328;10441
330;10443
331;10445
330;10447
328;10449
326;10451
324;10454
321;10456
319;10458
316;10460
314;10462
311;10464
310;10466
308;10468
306;10470
305;10472
304;10474
303;10476
303;10478
301;10480
301;10482
300;10484
300;10486
299;10488
299;10490
298;10492
298;10494
298;10496
297;10498
297;10500
297;10502
297;10504
297;10506
297;10508
296;10510
296;10512
296;10514
296;10516
295;10518
295;10520
295;10522
295;10524
295;10526
295;10528
295;10530
295;10532
295;10534
295;10536
295;10539
295;10541
295;10543
295;10545
296;10547
295;10549
295;10551
295;10553
296;10555
295;10557
296;10559
296;10561
296;10563
296;10565
296;10567
296;10569
297;10571
297;10573
297;10575
297;10577
297;10579
297;10582
298;10584
298;10586
298;10588
298;10590
299;10592
298;10594
299;10596
299;10598
299;10600
300;10602
300;10604
300;10606
300;10608
301;10610
301;10612
302;10614
302;10616
303;10618
303;10620
303;10622
303;10624
304;10626
304;10628
305;10630
305;10632
306;10634
306;10636
307;10638
307;10640
308;10642
309;10644
309;10646
310;10648
310;10650
311;10652
312;10654
313;10656
313;10658
314;10660
315;10662
315;10664
316;10667
316;10669
317;10671
317;10673
318;10675
319;10677
319;10679
319;10681
319;10683
320;10685
320;10687
321;10689
320;10691
320;10693
320;10695
320;10697
320;10699
320;10701
319;10703
319;10705
318;10707
317;10710
316;10712
316;10714
314;10716
314;10718
312;10720
311;10722
310;10724
309;10726
308;10728
306;10730
305;10732
304;10734
303;10736
302;10738
301;10740
300;10742
298;10744
298;10746
297;10748
296;10750
295;10752
294;10754
293;10756
292;10758
291;10760
290;10762
290;10764
288;10766
288;10768
287;10770
287;10772
287;10774
286;10776
286;10778
285;10780
285;10782
284;10784
284;10786
284;10788
283;10790
283;10792
283;10795
283;10797
282;10799
283;10801
282;10803
282;10805
282;10807
282;10809
282;10811
282;10813
282;10815
282;10817
282;10819
282;10821
282;10823
282;10825
282;10827
283;10829
283;10831
283;10833
283;10835
283;10838
283;10840
283;10842
283;10844
283;10846
284;10848
284;10850
284;10852
284;10854
284;10856
285;10858
284;10860
285;10862
284;10864
285;10866
285;10868
285;10870
285;10872
286;10874
286;10876
286;10878
286;10880
286;10882
286;10884
286;10886
286;10888
286;10890
286;10892
287;10894
287;10896
287;10898
287;10900
287;10902
287;10904
287;10906
287;10908
287;10910
288;10912
288;10914
288;10916
288;10918
288;10920
288;10923
288;10925
288;10927
288;10929
289;10931
289;10933
289;10935
289;10937
289;10939
289;10941
290;10943
289;10945
290;10947
290;10949
290;10951
290;10953
290;10955
290;10957
290;10959
290;10961
290;10963
290;10966
290;10968
290;10970
291;10972
291;10974
291;10976
291;10978
291;10980
291;10982
291;10984
291;10986
292;10988
292;10990
292;10992
292;10994
292;10996
292;10998
292;11000
293;11002
293;11004
293;11006
293;11008
293;11010
293;11012
293;11014
293;11016
293;11018
293;11020
294;11022
294;11024
294;11026
295;11028
295;11030
295;11032
295;11034
296;11036
296;11038
296;11040
297;11042
297;11044
298;11046
298;11048
298;11051
298;11053
299;11055
299;11057
299;11059
299;11061
300;11063
300;11065
300;11067
300;11069
300;11071
300;11073
301;11075
300;11077
300;11079
300;11081
300;11083
300;11085
300;11087
299;11089
299;11091
299;11094
298;11096
298;11098
298;11100
298;11102
297;11104
297;11106
297;11108
297;11110
297;11112
296;11114
296;11116
296;11118
296;11120
295;11122
296;11124
295;11126
295;11128
295;11130
295;11132
295;11134
295;11136
295;11138
295;11140
295;11142
295;11144
295;11146
294;11148
294;11150
293;11152
293;11154
293;11156
292;11158
292;11160
291;11162
291;11164
291;11166
292;11168
293;11170
296;11172
299;11174
303;11176
307;11179
311;11181
316;11183
320;11185
324;11187
327;11189
330;11191
331;11193
331;11195
330;11197
327;11199
325;11201
322;11203
320;11205
317;11207
315;11209
312;11211
311;11213
309;11215
307;11217
306;11219
305;11222
304;11224
303;11226
302;11228
302;11230
301;11232
301;11234
300;11236
300;11238
299;11240
299;11242
298;11244
298;11246
298;11248
297;11250
297;11252
297;11254
296;11256
296;11258
296;11260
296;11262
295;11264
295;11266
295;11268
295;11270
295;11272
295;11274
295;11276
295;11278
295;11280
295;11282
295;11284
295;11286
295;11288
295;11290
295;11292
295;11294
295;11296
295;11298
295;11300
295;11302
295;11304
295;11307
296;11309
295;11311
296;11313
296;11315
296;11317
296;11319
297;11321
296;11323
297;11325
297;11327
297;11329
297;11331
297;11333
297;11335
297;11337
297;11339
298;11341
298;11343
299;11345
299;11347
299;11350
299;11352
300;11354
300;11356
300;11358
301;11360
301;11362
301;11364
302;11366
302;11368
302;11370
303;11372
304;11374
304;11376
304;11378
305;11380
306;11382
306;11384
307;11386
307;11388
308;11390
308;11392
309;11394
309;11396
310;11398
311;11400
311;11402
312;11404
313;11406
313;11408
314;11410
315;11412
315;11414
316;11416
316;11418
317;11420
318;11422
318;11424
318;11426
319;11428
319;11430
320;11432
320;11435
320;11437
320;11439
320;11441
320;11443
320;11445
320;11447
320;11449
319;11451
319;11453
318;11455
317;11457
317;11459
316;11461
315;11463
314;11465
313;11467
312;11469
310;11471
309;11473
308;11475
307;11478
305;11480
304;11482
303;11484
302;11486
301;11488
299;11490
298;11492
297;11494
297;11496
295;11498
294;11500
293;11502
293;11504
291;11506
291;11508
290;11510
289;11512
288;11514
288;11516
287;11518
287;11520
287;11522
286;11524
285;11526
285;11528
285;11530
284;11532
284;11534
283;11536
283;11538
283;11540
282;11542
282;11544
282;11546
282;11548
282;11550
282;11552
281;11554
282;11556
281;11558
282;11560
281;11563
282;11565
281;11567
282;11569
281;11571
282;11573
282;11575
282;11577
282;11579
282;11581
282;11583
282;11585
282;11587
282;11589
283;11591
283;11593
283;11595
283;11597
283;11599
283;11601
283;11603
284;11606
284;11608
284;11610
284;11612
284;11614
284;11616
285;11618
285;11620
285;11622
285;11624
285;11626
285;11628
285;11630
285;11632
286;11634
286;11636
286;11638
286;11640
287;11642
287;11644
287;11646
287;11648
287;11650
287;11652
287;11654
287;11656
287;11658
287;11660
287;11662
288;11664
287;11666
288;11668
288;11670
288;11672
288;11674
288;11676
288;11678
288;11680
289;11682
289;11684
289;11686
289;11688
289;11691
289;11693
289;11695
289;11697
289;11699
289;11701
290;11703
289;11705
290;11707
290;11709
290;11711
290;11713
290;11715
290;11717
290;11719
291;11721
290;11723
291;11725
291;11727
291;11729
291;11731
291;11734
291;11736
291;11738
291;11740
291;11742
292;11744
292;11746
292;11748
292;11750
292;11752
292;11754
292;11756
292;11758
292;11760
292;11762
293;11764
292;11766
293;11768
293;11770
293;11772
293;11774
293;11776
293;11778
294;11780
294;11782
294;11784
295;11786
295;11788
296;11790
296;11792
296;11794
297;11796
296;11798
297;11800
297;11802
297;11804
298;11806
298;11808
299;11810
299;11812
299;11814
300;11816
299;11819
300;11821
300;11823
300;11825
300;11827
300;11829
301;11831
301;11833
301;11835
301;11837
301;11839
301;11841
301;11843
300;11845
300;11847
300;11849
299;11851
299;11853
299;11855
298;11857
298;11859
298;11862
298;11864
298;11866
297;11868
297;11870
297;11872
297;11874
296;11876
297;11878
296;11880
296;11882
296;11884
296;11886
296;11888
295;11890
295;11892
295;11894
295;11896
295;11898
295;11900
294;11902
295;11904
294;11906
294;11908
294;11910
294;11912
293;11914
292;11916
292;11918
292;11920
291;11922
291;11924
291;11926
291;11928
292;11930
294;11932
296;11934
300;11936
304;11938
309;11940
313;11942
318;11944
322;11947
327;11949
330;11951
333;11953
334;11955
333;11957
331;11959
330;11961
327;11963
324;11965
322;11967
319;11969
317;11971
314;11973
312;11975
310;11977
309;11979
308;11981
307;11983
306;11985
305;11987
304;11990
304;11992
303;11994
302;11996
302;11998
300;12000
300;12002
300;12004
299;12006
298;12008
298;12010
298;12012
297;12014
296;12016
296;12018
296;12020
296;12022
295;12024
295;12026
295;12028
295;12030
295;12032
294;12034
294;12036
294;12038
295;12040
294;12042
294;12044
294;12046
294;12048
294;12050
294;12052
294;12054
294;12056
294;12058
294;12060
294;12062
294;12064
294;12066
294;12068
294;12070
294;12072
295;12075
294;12077
295;12079
295;12081
295;12083
295;12085
296;12087
295;12089
295;12091
296;12093
296;12095
296;12097
296;12099
297;12101
297;12103
298;12105
297;12107
298;12109
298;12111
299;12113
299;12115
299;12118
299;12120
300;12122
300;12124
300;12126
301;12128
301;12130
302;12132
302;12134
303;12136
303;12138
303;12140
304;12142
305;12144
305;12146
306;12148
306;12150
307;12152
308;12154
308;12156
309;12158
309;12160
310;12162
311;12164
311;12166
312;12168
313;12170
314;12172
314;12174
315;12176
315;12178
316;12180
316;12182
317;12184
318;12186
318;12188
319;12190
319;12192
319;12194
320;12196
320;12198
320;12200
320;12203
320;12205
320;12207
320;12209
319;12211
319;12213
319;12215
318;12217
317;12219
316;12221
315;12223
315;12225
313;12227
313;12229
311;12231
310;12233
309;12235
308;12237
306;12239
305;12241
304;12243
303;12246
302;12248
301;12250
299;12252
299;12254
297;12256
296;12258
295;12260
294;12262
293;12264
292;12266
291;12268
290;12270
290;12272
289;12274
288;12276
287;12278
287;12280
286;12282
286;12284
285;12286
285;12288
284;12290
284;12292
284;12294
283;12296
283;12298
283;12300
282;12302
282;12304
282;12306
282;12308
282;12310
282;12312
282;12314
282;12316
282;12318
282;12320
282;12322
282;12324
282;12326
281;12328
282;12331
282;12333
282;12335
282;12337
282;12339
282;12341
282;12343
282;12345
282;12347
282;12349
282;12351
283;12353
283;12355
283;12357
283;12359
283;12361
283;12363
284;12365
284;12367
284;12369
284;12371
284;12374
284;12376
285;12378
284;12380
285;12382
285;12384
285;12386
285;12388
286;12390
285;12392
286;12394
286;12396
286;12398
286;12400
286;12402
286;12404
287;12406
286;12408
287;12410
287;12412
287;12414
287;12416
287;12418
287;12420
287;12422
288;12424
287;12426
288;12428
288;12430
288;12432
288;12434
288;12436
288;12438
288;12440
288;12442
289;12444
288;12446
289;12448
289;12450
289;12452
289;12454
289;12456
289;12459
290;12461
289;12463
290;12465
289;12467
290;12469
290;12471
290;12473
290;12475
290;12477
290;12479
291;12481
290;12483
291;12485
290;12487
291;12489
291;12491
291;12493
291;12495
291;12497
291;12499
291;12502
291;12504
291;12506
291;12508
292;12510
292;12512
292;12514
292;12516
292;12518
292;12520
292;12522
293;12524
293;12526
293;12528
293;12530
293;12532
293;12534
293;12536
293;12538
293;12540
294;12542
294;12544
294;12546
295;12548
295;12550
295;12552
296;12554
296;12556
296;12558
296;12560
297;12562
297;12564
297;12566
298;12568
298;12570
298;12572
299;12574
299;12576
299;12578
300;12580
300;12582
300;12584
300;12587
300;12589
301;12591
301;12593
301;12595
301;12597
301;12599
301;12601
301;12603
300;12605
301;12607
300;12609
300;12611
299;12613
299;12615
298;12617
299;12619
298;12621
298;12623
297;12625
297;12627
297;12630
297;12632
297;12634
297;12636
296;12638
296;12640
296;12642
296;12644
296;12646
295;12648
296;12650
295;12652
295;12654
295;12656
295;12658
295;12660
294;12662
294;12664
294;12666
294;12668
294;12670
294;12672
294;12674
293;12676
293;12678
292;12680
292;12682
291;12684
290;12686
291;12688
290;12690
291;12692
292;12694
294;12696
297;12698
301;12700
305;12702
310;12704
315;12706
319;12708
324;12710
328;12712
331;12715
333;12717
334;12719
333;12721
331;12723
329;12725
327;12727
324;12729
321;12731
318;12733
316;12735
314;12737
312;12739
310;12741
310;12743
308;12745
307;12747
306;12749
306;12751
304;12753
304;12755
303;12758
303;12760
302;12762
301;12764
301;12766
300;12768
299;12770
299;12772
298;12774
297;12776
297;12778
297;12780
297;12782
296;12784
296;12786
296;12788
295;12790
295;12792
295;12794
295;12796
295;12798
295;12800
295;12802
294;12804
294;12806
294;12808
294;12810
294;12812
294;12814
294;12816
294;12818
294;12820
294;12822
294;12824
294;12826
294;12828
294;12830
294;12832
294;12834
294;12836
294;12838
295;12840
294;12843
295;12845
295;12847
295;12849
295;12851
296;12853
296;12855
296;12857
296;12859
297;12861
296;12863
297;12865
297;12867
297;12869
297;12871
298;12873
298;12875
298;12877
299;12879
299;12881
300;12883
300;12886
300;12888
300;12890
301;12892
302;12894
302;12896
303;12898
303;12900
303;12902
304;12904
304;12906
305;12908
306;12910
306;12912
307;12914
307;12916
308;12918
309;12920
310;12922
310;12924
310;12926
311;12928
312;12930
313;12932
313;12934
314;12936
314;12938
315;12940
316;12942
316;12944
317;12946
318;12948
318;12950
318;12952
319;12954
319;12956
320;12958
320;12960
320;12962
320;12964
321;12966
320;12968
320;12971
320;12973
319;12975
319;12977
318;12979
317;12981
316;12983
316;12985
315;12987
314;12989
313;12991
312;12993
310;12995
309;12997
308;12999
307;13001
306;13003
304;13005
304;13007
302;13009
301;13011
300;13014
299;13016
298;13018
297;13020
295;13022
295;13024
293;13026
292;13028
291;13030
290;13032
290;13034
289;13036
288;13038
287;13040
287;13042
286;13044
286;13046
285;13048
285;13050
284;13052
284;13054
284;13056
283;13058
283;13060
283;13062
283;13064
283;13066
282;13068
282;13070
282;13072
282;13074
281;13076
281;13078
281;13080
281;13082
281;13084
281;13086
281;13088
281;13090
281;13092
281;13094
281;13096
282;13099
281;13101
282;13103
282;13105
282;13107
282;13109
282;13111
283;13113
282;13115
283;13117
282;13119
283;13121
283;13123
283;13125
283;13127
283;13129
283;13131
283;13133
284;13135
284;13137
284;13139
284;13142
284;13144
284;13146
284;13148
284;13150
285;13152
285;13154
285;13156
285;13158
285;13160
286;13162
285;13164
286;13166
286;13168
286;13170
286;13172
286;13174
286;13176
286;13178
287;13180
286;13182
287;13184
287;13186
287;13188
287;13190
287;13192
287;13194
287;13196
287;13198
287;13200
287;13202
287;13204
288;13206
287;13208
288;13210
288;13212
288;13214
288;13216
288;13218
288;13220
288;13222
289;13224
289;13227
289;13229
289;13231
289;13233
289;13235
289;13237
289;13239
290;13241
290;13243
290;13245
290;13247
290;13249
291;13251
290;13253
290;13255
290;13257
291;13259
290;13261
291;13263
291;13265
291;13267
291;13270
291;13272
291;13274
291;13276
292;13278
292;13280
292;13282
292;13284
293;13286
292;13288
292;13290
292;13292
293;13294
293;13296
293;13298
293;13300
293;13302
293;13304
293;13306
293;13308
293;13310
293;13312
293;13314
294;13316
294;13318
295;13320
295;13322
295;13324
296;13326
296;13328
296;13330
296;13332
297;13334
297;13336
298;13338
298;13340
298;13342
298;13344
299;13346
299;13348
299;13350
299;13352
300;13355
300;13357
300;13359
300;13361
300;13363
301;13365
301;13367
301;13369
301;13371
301;13373
300;13375
300;13377
300;13379
300;13381
299;13383
299;13385
298;13387
298;13389
298;13391
298;13393
297;13395
297;13398
297;13400
297;13402
297;13404
296;13406
296;13408
296;13410
296;13412
295;13414
296;13416
295;13418
296;13420
295;13422
295;13424
295;13426
295;13428
295;13430
295;13432
295;13434
295;13436
295;13438
294;13440
294;13442
294;13444
293;13446
293;13448
292;13450
292;13452
291;13454
291;13456
291;13458
291;13460
292;13462
294;13464
297;13466
300;13468
304;13470
309;13472
313;13474
318;13476
323;13478
326;13480
330;13483
332;13485
333;13487
332;13489
330;13491
328;13493
326;13495
323;13497
321;13499
318;13501
315;13503
313;13505
311;13507
309;13509
308;13511
306;13513
305;13515
304;13517
303;13519
303;13521
302;13523
302;13526
300;13528
300;13530
300;13532
299;13534
299;13536
298;13538
298;13540
298;13542
297;13544
297;13546
297;13548
296;13550
296;13552
296;13554
296;13556
295;13558
296;13560
295;13562
295;13564
295;13566
295;13568
295;13570
294;13572
295;13574
294;13576
295;13578
294;13580
295;13582
294;13584
294;13586
294;13588
294;13590
295;13592
294;13594
295;13596
295;13598
295;13600
295;13602
295;13604
295;13606
295;13608
295;13611
295;13613
296;13615
296;13617
296;13619
296;13621
296;13623
297;13625
297;13627
297;13629
297;13631
298;13633
298;13635
298;13637
299;13639
298;13641
299;13643
299;13645
300;13647
300;13649
300;13651
301;13654
301;13656
301;13658
302;13660
302;13662
302;13664
303;13666
304;13668
304;13670
305;13672
305;13674
305;13676
307;13678
307;13680
308;13682
308;13684
309;13686
309;13688
310;13690
311;13692
311;13694
312;13696
313;13698
314;13700
314;13702
315;13704
315;13706
316;13708
317;13710
317;13712
318;13714
318;13716
319;13718
319;13720
320;13722
320;13724
320;13726
321;13728
321;13730
321;13732
321;13734
321;13736
321;13739
320;13741
320;13743
320;13745
319;13747
318;13749
318;13751
317;13753
316;13755
315;13757
314;13759
313;13761
312;13763
311;13765
310;13767
308;13769
307;13771
306;13773
305;13775
304;13777
303;13779
301;13782
300;13784
299;13786
298;13788
297;13790
296;13792
295;13794
294;13796
293;13798
292;13800
291;13802
290;13804
289;13806
288;13808
288;13810
288;13812
286;13814
286;13816
285;13818
285;13820
284;13822
284;13824
284;13826
284;13828
284;13830
283;13832
283;13834
283;13836
282;13838
282;13840
282;13842
282;13844
282;13846
282;13848
282;13850
282;13852
282;13854
282;13856
282;13858
282;13860
282;13862
282;13864
282;13867
282;13869
282;13871
282;13873
283;13875
282;13877
282;13879
283;13881
282;13883
283;13885
283;13887
283;13889
283;13891
283;13893
283;13895
283;13897
283;13899
284;13901
284;13903
284;13905
284;13907
284;13910
284;13912
285;13914
284;13916
285;13918
285;13920
285;13922
285;13924
286;13926
286;13928
286;13930
286;13932
286;13934
287;13936
286;13938
287;13940
287;13942
287;13944
287;13946
287;13948
287;13950
287;13952
287;13954
287;13956
287;13958
288;13960
288;13962
288;13964
288;13966
288;13968
288;13970
288;13972
288;13974
288;13976
288;13978
289;13980
289;13982
289;13984
289;13986
289;13988
289;13990
289;13992
289;13995
289;13997
290;13999
289;14001
290;14003
290;14005
290;14007
290;14009
290;14011
290;14013
290;14015
290;14017
290;14019
291;14021
291;14023
291;14025
291;14027
291;14029
291;14031
291;14033
291;14035
292;14038
292;14040
292;14042
292;14044
292;14046
293;14048
292;14050
293;14052
293;14054
293;14056
294;14058
293;14060
294;14062
294;14064
295;14066
294;14068
295;14070
295;14072
295;14074
295;14076
295;14078
295;14080
295;14082
295;14084
295;14086
295;14088
295;14090
296;14092
296;14094
297;14096
298;14098
298;14100
299;14102
299;14104
299;14106
299;14108
300;14110
300;14112
301;14114
300;14116
301;14118
301;14120
301;14123
300;14125
300;14127
300;14129
300;14131
300;14133
300;14135
300;14137
300;14139
300;14141
300;14143
300;14145
299;14147
300;14149
300;14151
299;14153
299;14155
299;14157
299;14159
299;14161
299;14163
298;14166
299;14168
298;14170
298;14172
297;14174
297;14176
296;14178
296;14180
295;14182
295;14184
295;14186
295;14188
296;14190
298;14192
300;14194
303;14196
307;14198
311;14200
315;14202
319;14204
323;14206
325;14208
328;14210
331;14212
332;14214
332;14216
330;14218
328;14220
325;14222
323;14224
320;14226
318;14228
315;14230
313;14232
311;14234
309;14236
307;14238
306;14240
305;14242
303;14244
303;14246
302;14248
302;14251
301;14253
301;14255
300;14257
300;14259
299;14261
299;14263
298;14265
298;14267
297;14269
298;14271
297;14273
297;14275
297;14277
297;14279
297;14281
297;14283
296;14285
296;14287
296;14289
296;14291
296;14294
295;14296
296;14298
295;14300
296;14302
295;14304
296;14306
296;14308
296;14310
296;14312
295;14314
296;14316
296;14318
296;14320
296;14322
296;14324
296;14326
296;14328
296;14330
296;14332
296;14334
296;14336
297;14338
297;14340
297;14342
297;14344
297;14346
297;14348
298;14350
298;14352
298;14354
298;14356
299;14358
299;14360
299;14362
299;14364
300;14366
300;14368
300;14370
301;14372
301;14374
302;14376
302;14379
302;14381
302;14383
303;14385
303;14387
303;14389
303;14391
303;14393
304;14395
304;14397
304;14399
304;14401
305;14403
305;14405
306;14407
306;14409
306;14411
307;14413
307;14415
308;14417
309;14419
310;14422
310;14424
311;14426
312;14428
313;14430
313;14432
314;14434
315;14436
316;14438
317;14440
318;14442
319;14444
319;14446
320;14448
320;14450
320;14452
319;14454
319;14456
319;14458
318;14460
318;14462
318;14464
317;14466
316;14468
315;14470
313;14472
311;14474
309;14476
307;14478
305;14480
305;14482
304;14484
305;14486
305;14488
305;14490
304;14492
304;14494
304;14496
304;14498
304;14500
304;14502
304;14504
304;14507
305;14509
304;14511
304;14513
304;14515
303;14517
302;14519
301;14521
300;14523
299;14525
298;14527
297;14529
296;14531
295;14533
294;14535
294;14537
293;14539
292;14541
291;14543
291;14545
290;14547
290;14550
289;14552
288;14554
288;14556
287;14558
287;14560
286;14562
286;14564
285;14566
284;14568
284;14570
284;14572
283;14574
283;14576
283;14578
282;14580
282;14582
282;14584
282;14586
282;14588
283;14590
283;14592
283;14594
283;14596
283;14598
282;14600
282;14602
282;14604
282;14606
282;14608
282;14610
282;14612
282;14614
283;14616
283;14618
283;14620
283;14622
283;14624
283;14626
284;14628
284;14630
283;14632
283;14635
282;14637
281;14639
281;14641
280;14643
280;14645
280;14647
280;14649
281;14651
281;14653
282;14655
282;14657
283;14659
283;14661
284;14663
283;14665
284;14667
284;14669
284;14671
284;14673
284;14675
285;14678
284;14680
285;14682
284;14684
285;14686
285;14688
285;14690
285;14692
285;14694
286;14696
286;14698
285;14700
285;14702
285;14704
284;14706
283;14708
281;14710
280;14712
280;14714
280;14716
280;14718
280;14720
281;14722
282;14724
282;14726
283;14728
285;14730
286;14732
288;14734
289;14736
291;14738
291;14740
292;14742
292;14744
293;14746
293;14748
294;14750
294;14752
294;14754
295;14756
294;14758
295;14760
295;14763
295;14765
295;14767
295;14769
295;14771
295;14773
295;14775
294;14777
295;14779
294;14781
294;14783
294;14785
295;14787
295;14789
295;14791
295;14793
296;14795
296;14797
296;14799
297;14801
298;14803
299;14806
299;14808
300;14810
301;14812
302;14814
302;14816
302;14818
302;14820
302;14822
302;14824
302;14826
302;14828
302;14830
302;14832
303;14834
303;14836
303;14838
303;14840
303;14842
302;14844
302;14846
302;14848
301;14850
301;14852
300;14854
300;14856
300;14858
299;14860
299;14862
298;14864
298;14866
298;14868
298;14870
297;14872
297;14874
297;14876
296;14878
297;14880
296;14882
296;14884
296;14886
296;14888
295;14891
296;14893
295;14895
295;14897
295;14899
295;14901
296;14903
295;14905
295;14907
295;14909
295;14911
294;14913
294;14915
293;14917
293;14919
292;14921
292;14923
291;14925
292;14927
292;14929
293;14931
295;14934
297;14936
301;14938
305;14940
310;14942
314;14944
319;14946
323;14948
327;14950
331;14952
332;14954
333;14956
332;14958
330;14960
328;14962
325;14964
323;14966
320;14968
317;14970
315;14972
313;14974
312;14976
310;14978
309;14980
308;14982
307;14984
306;14986
305;14988
305;14990
304;14992
303;14994
302;14996
302;14998
301;15000
301;15002
300;15004
300;15006
299;15008
299;15010
298;15012
298;15014
297;15016
297;15019
297;15021
296;15023
297;15025
296;15027
296;15029
296;15031
296;15033
296;15035
296;15037
296;15039
296;15041
296;15043
296;15045
296;15047
296;15049
296;15051
296;15053
295;15055
296;15057
296;15059
296;15062
296;15064
296;15066
296;15068
296;15070
296;15072
296;15074
296;15076
297;15078
296;15080
296;15082
297;15084
297;15086
297;15088
297;15090
297;15092
297;15094
298;15096
298;15098
298;15100
298;15102
298;15104
298;15106
299;15108
299;15110
299;15112
300;15114
300;15116
300;15118
301;15120
301;15122
301;15124
301;15126
302;15128
302;15130
303;15132
304;15134
304;15136
304;15138
305;15140
305;15142
306;15144
306;15147
307;15149
308;15151
308;15153
309;15155
310;15157
311;15159
311;15161
312;15163
312;15165
313;15167
314;15169
314;15171
315;15173
316;15175
316;15177
317;15179
317;15181
318;15183
318;15185
319;15187
319;15190
320;15192
320;15194
320;15196
320;15198
321;15200
321;15202
321;15204
321;15206
320;15208
320;15210
320;15212
319;15214
318;15216
318;15218
317;15220
316;15222
315;15224
314;15226
313;15228
312;15230
311;15232
310;15234
309;15236
308;15238
306;15240
305;15242
304;15244
302;15246
302;15248
300;15250
299;15252
298;15254
297;15256
296;15258
295;15260
294;15262
293;15264
292;15266
291;15268
290;15270
289;15272
288;15275
288;15277
287;15279
286;15281
286;15283
285;15285
284;15287
284;15289
283;15291
283;15293
283;15295
282;15297
282;15299
281;15301
281;15303
281;15305
281;15307
280;15309
281;15311
280;15313
280;15315
280;15318
280;15320
280;15322
280;15324
280;15326
280;15328
280;15330
280;15332
281;15334
281;15336
280;15338
281;15340
281;15342
281;15344
281;15346
281;15348
281;15350
282;15352
282;15354
282;15356
282;15358
282;15360
282;15362
282;15364
282;15366
282;15368
283;15370
283;15372
283;15374
283;15376
283;15378
283;15380
284;15382
284;15384
284;15386
284;15388
284;15390
285;15392
285;15394
285;15396
285;15398
285;15400
285;15403
285;15405
285;15407
286;15409
285;15411
286;15413
286;15415
286;15417
286;15419
286;15421
286;15423
286;15425
286;15427
287;15429
287;15431
287;15433
287;15435
287;15437
287;15439
287;15441
287;15443
288;15446
288;15448
288;15450
288;15452
288;15454
288;15456
288;15458
288;15460
288;15462
288;15464
289;15466
288;15468
289;15470
289;15472
289;15474
289;15476
289;15478
289;15480
290;15482
290;15484
290;15486
290;15488
290;15490
290;15492
290;15494
290;15496
291;15498
290;15500
291;15502
291;15504
291;15506
291;15508
292;15510
292;15512
292;15514
293;15516
293;15518
294;15520
294;15522
295;15524
295;15526
295;15528
295;15531
296;15533
297;15535
296;15537
297;15539
297;15541
298;15543
298;15545
298;15547
298;15549
299;15551
299;15553
299;15555
299;15557
299;15559
299;15561
299;15563
300;15565
299;15567
299;15569
299;15571
298;15574
298;15576
298;15578
298;15580
297;15582
297;15584
297;15586
297;15588
296;15590
296;15592
296;15594
296;15596
296;15598
295;15600
295;15602
295;15604
295;15606
295;15608
295;15610
295;15612
295;15614
294;15616
294;15618
294;15620
294;15622
294;15624
294;15626
294;15628
294;15630
293;15632
294;15634
293;15636
293;15638
293;15640
292;15642
292;15644
291;15646
290;15648
290;15650
289;15652
289;15654
289;15656
290;15659
292;15661
294;15663
298;15665
302;15667
307;15669
311;15671
316;15673
320;15675
325;15677
329;15679
332;15681
333;15683
333;15685
332;15687
330;15689
328;15691
325;15693
322;15695
319;15697
317;15699
314;15702
313;15704
310;15706
309;15708
308;15710
307;15712
306;15714
305;15716
304;15718
303;15720
303;15722
302;15724
301;15726
301;15728
300;15730
299;15732
299;15734
299;15736
298;15738
298;15740
297;15742
297;15744
297;15746
297;15748
296;15750
296;15752
296;15754
295;15756
295;15758
295;15760
295;15762
295;15764
295;15766
294;15768
295;15770
294;15772
294;15774
294;15776
294;15778
294;15780
294;15782
294;15784
294;15787
294;15789
294;15791
294;15793
294;15795
295;15797
295;15799
295;15801
295;15803
295;15805
295;15807
295;15809
295;15811
296;15813
296;15815
296;15817
296;15819
296;15821
297;15823
297;15825
297;15827
297;15830
298;15832
298;15834
298;15836
298;15838
299;15840
299;15842
299;15844
299;15846
300;15848
300;15850
300;15852
300;15854
301;15856
301;15858
302;15860
302;15862
303;15864
303;15866
304;15868
305;15870
304;15872
305;15874
306;15876
306;15878
307;15880
308;15882
309;15884
309;15886
310;15888
310;15890
311;15892
312;15894
313;15896
313;15898
314;15900
315;15902
315;15904
316;15906
316;15908
317;15910
317;15912
318;15915
318;15917
319;15919
319;15921
320;15923
320;15925
320;15927
320;15929
320;15931
320;15933
320;15935
320;15937
320;15939
319;15941
318;15943
318;15945
317;15947
316;15949
315;15951
314;15953
313;15955
312;15958
311;15960
310;15962
309;15964
307;15966
306;15968
305;15970
303;15972
302;15974
301;15976
300;15978
299;15980
298;15982
297;15984
296;15986
295;15988
293;15990
293;15992
292;15994
290;15996
290;15998
289;16000
289;16002
288;16004
287;16006
287;16008
286;16010
286;16012
285;16014
284;16016
284;16018
284;16020
284;16022
283;16024
282;16026
282;16028
282;16030
282;16032
282;16034
282;16036
281;16038
281;16040
281;16043
281;16045
281;16047
281;16049
281;16051
281;16053
281;16055
281;16057
281;16059
281;16061
281;16063
281;16065
281;16067
282;16069
281;16071
282;16073
282;16075
282;16077
282;16079
282;16081
282;16083
282;16086
283;16088
282;16090
283;16092
283;16094
283;16096
283;16098
283;16100
283;16102
284;16104
284;16106
284;16108
284;16110
284;16112
284;16114
285;16116
285;16118
285;16120
285;16122
285;16124
285;16126
285;16128
286;16130
286;16132
286;16134
286;16136
286;16138
286;16140
286;16142
286;16144
286;16146
287;16148
286;16150
287;16152
287;16154
287;16156
287;16158
288;16160
288;16162
288;16164
288;16166
288;16168
288;16171
288;16173
289;16175
288;16177
289;16179
289;16181
289;16183
289;16185
289;16187
289;16189
289;16191
289;16193
290;16195
290;16197
290;16199
290;16201
290;16203
290;16205
291;16207
291;16209
291;16211
292;16214
292;16216
292;16218
293;16220
293;16222
294;16224
294;16226
294;16228
295;16230
294;16232
295;16234
296;16236
297;16238
297;16240
297;16242
298;16244
298;16246
298;16248
298;16250
298;16252
299;16254
299;16256
299;16258
299;16260
299;16262
300;16264
299;16266
300;16268
299;16270
299;16272
299;16274
298;16276
299;16278
298;16280
298;16282
298;16284
297;16286
296;16288
297;16290
296;16292
296;16294
296;16296
296;16299
296;16301
296;16303
295;16305
295;16307
295;16309
295;16311
295;16313
295;16315
295;16317
294;16319
295;16321
294;16323
295;16325
294;16327
294;16329
294;16331
294;16333
294;16335
294;16337
293;16339
293;16342
293;16344
292;16346
292;16348
291;16350
291;16352
291;16354
291;16356
291;16358
292;16360
293;16362
296;16364
300;16366
303;16368
308;16370
312;16372
316;16374
321;16376
325;16378
328;16380
330;16382
330;16384
331;16386
329;16388
327;16390
325;16392
322;16394
320;16396
317;16398
315;16400
312;16402
310;16404
308;16406
306;16408
305;16410
304;16412
302;16414
302;16416
301;16418
300;16420
300;16422
299;16424
299;16427
298;16429
298;16431
298;16433
298;16435
297;16437
297;16439
296;16441
297;16443
296;16445
296;16447
296;16449
296;16451
295;16453
295;16455
295;16457
295;16459
295;16461
295;16463
295;16465
295;16467
295;16470
295;16472
295;16474
295;16476
295;16478
295;16480
295;16482
295;16484
295;16486
295;16488
295;16490
295;16492
296;16494
295;16496
296;16498
296;16500
296;16502
296;16504
296;16506
296;16508
297;16510
297;16512
297;16514
297;16516
297;16518
297;16520
297;16522
298;16524
298;16526
298;16528
298;16530
299;16532
299;16534
299;16536
299;16538
300;16540
300;16542
301;16544
300;16546
301;16548
301;16550
302;16552
302;16555
302;16557
303;16559
303;16561
304;16563
304;16565
305;16567
305;16569
306;16571
306;16573
307;16575
307;16577
308;16579
309;16581
310;16583
310;16585
311;16587
311;16589
312;16591
312;16593
313;16595
314;16598
315;16600
315;16602
315;16604
316;16606
317;16608
318;16610
318;16612
318;16614
319;16616
319;16618
320;16620
320;16622
320;16624
320;16626
321;16628
320;16630
321;16632
320;16634
320;16636
320;16638
319;16640
319;16642
318;16644
318;16646
317;16648
316;16650
315;16652
314;16654
313;16656
312;16658
311;16660
310;16662
309;16664
308;16666
306;16668
305;16670
304;16672
303;16674
302;16676
300;16678
299;16680
298;16683
297;16685
296;16687
295;16689
294;16691
293;16693
292;16695
291;16697
290;16699
290;16701
289;16703
288;16705
288;16707
287;16709
287;16711
286;16713
286;16715
285;16717
285;16719
284;16721
284;16723
283;16726
283;16728
283;16730
283;16732
283;16734
282;16736
282;16738
282;16740
282;16742
282;16744
282;16746
282;16748
282;16750
282;16752
282;16754
282;16756
282;16758
282;16760
282;16762
282;16764
282;16766
282;16768
282;16770
282;16772
283;16774
282;16776
283;16778
283;16780
283;16782
283;16784
283;16786
283;16788
284;16790
284;16792
284;16794
284;16796
284;16798
284;16800
284;16802
285;16804
284;16806
285;16808
285;16811
285;16813
285;16815
285;16817
285;16819
286;16821
286;16823
286;16825
286;16827
286;16829
286;16831
286;16833
287;16835
286;16837
287;16839
287;16841
287;16843
287;16845
287;16847
288;16849
288;16851
288;16854
288;16856
288;16858
288;16860
288;16862
288;16864
289;16866
288;16868
289;16870
289;16872
289;16874
289;16876
289;16878
289;16880
290;16882
289;16884
290;16886
289;16888
290;16890
290;16892
290;16894
290;16896
290;16898
290;16900
290;16902
291;16904
291;16906
291;16908
292;16910
292;16912
292;16914
293;16916
293;16918
293;16920
293;16922
294;16924
294;16926
295;16928
295;16930
295;16932
296;16934
296;16936
297;16939
297;16941
297;16943
297;16945
298;16947
298;16949
298;16951
298;16953
299;16955
298;16957
299;16959
299;16961
299;16963
299;16965
299;16967
298;16969
298;16971
298;16973
298;16975
297;16977
297;16979
297;16982
297;16984
297;16986
296;16988
296;16990
296;16992
296;16994
296;16996
296;16998
295;17000
295;17002
295;17004
295;17006
295;17008
295;17010
294;17012
294;17014
294;17016
294;17018
294;17020
294;17022
294;17024
294;17026
294;17028
293;17030
293;17032
293;17034
292;17036
293;17038
292;17040
292;17042
291;17044
291;17046
291;17048
291;17050
291;17052
291;17054
293;17056
295;17058
297;17060
301;17062
305;17064
309;17067
313;17069
317;17071
321;17073
324;17075
327;17077
328;17079
328;17081
327;17083
326;17085
323;17087
321;17089
318;17091
316;17093
313;17095
311;17097
309;17099
307;17101
306;17103
304;17105
303;17107
302;17110
301;17112
300;17114
300;17116
299;17118
299;17120
298;17122
298;17124
297;17126
297;17128
297;17130
296;17132
296;17134
296;17136
296;17138
296;17140
296;17142
295;17144
295;17146
295;17148
295;17150
295;17152
295;17154
295;17156
295;17158
295;17160
295;17162
295;17164
295;17166
295;17168
295;17170
295;17172
295;17174
295;17176
295;17178
295;17180
295;17182
295;17184
295;17186
295;17188
295;17190
295;17192
295;17195
296;17197
296;17199
296;17201
296;17203
296;17205
296;17207
297;17209
297;17211
297;17213
297;17215
297;17217
297;17219
298;17221
298;17223
298;17225
298;17227
299;17229
299;17231
299;17233
299;17235
300;17238
300;17240
300;17242
301;17244
301;17246
301;17248
302;17250
302;17252
302;17254
303;17256
303;17258
304;17260
304;17262
305;17264
305;17266
306;17268
306;17270
307;17272
308;17274
308;17276
309;17278
309;17280
310;17282
310;17284
311;17286
312;17288
313;17290
313;17292
314;17294
314;17296
315;17298
316;17300
316;17302
317;17304
317;17306
318;17308
318;17310
319;17312
319;17314
320;17316
320;17318
320;17320
320;17323
321;17325
320;17327
320;17329
320;17331
320;17333
319;17335
319;17337
318;17339
318;17341
317;17343
316;17345
316;17347
314;17349
314;17351
312;17353
312;17355
310;17357
309;17359
308;17361
307;17363
306;17366
305;17368
304;17370
302;17372
301;17374
300;17376
299;17378
298;17380
297;17382
296;17384
295;17386
294;17388
293;17390
292;17392
291;17394
290;17396
290;17398
289;17400
288;17402
288;17404
288;17406
287;17408
286;17410
286;17412
285;17414
285;17416
285;17418
285;17420
284;17422
284;17424
283;17426
283;17428
283;17430
283;17432
282;17434
282;17436
282;17438
282;17440
282;17442
282;17444
282;17446
282;17448
282;17451
282;17453
282;17455
282;17457
282;17459
282;17461
283;17463
283;17465
283;17467
283;17469
282;17471
283;17473
283;17475
283;17477
283;17479
283;17481
283;17483
283;17485
283;17487
284;17489
284;17491
284;17494
284;17496
285;17498
285;17500
285;17502
285;17504
285;17506
285;17508
285;17510
285;17512
286;17514
286;17516
286;17518
286;17520
286;17522
286;17524
286;17526
286;17528
286;17530
287;17532
286;17534
287;17536
287;17538
287;17540
287;17542
287;17544
288;17546
288;17548
288;17550
288;17552
288;17554
288;17556
288;17558
288;17560
288;17562
288;17564
289;17566
288;17568
289;17570
289;17572
289;17574
289;17576
289;17579
289;17581
290;17583
290;17585
290;17587
290;17589
291;17591
292;17593
292;17595
293;17597
293;17599
294;17601
294;17603
295;17605
295;17607
296;17609
296;17611
297;17613
297;17615
298;17617
298;17619
299;17622
300;17624
300;17626
301;17628
301;17630
301;17632
301;17634
302;17636
302;17638
302;17640
302;17642
303;17644
302;17646
303;17648
302;17650
302;17652
302;17654
302;17656
301;17658
301;17660
301;17662
300;17664
299;17666
299;17668
298;17670
298;17672
297;17674
297;17676
296;17678
296;17680
296;17682
295;17684
295;17686
294;17688
294;17690
294;17692
293;17694
293;17696
293;17698
293;17700
292;17702
292;17704
292;17707
292;17709
291;17711
291;17713
291;17715
291;17717
291;17719
291;17721
291;17723
290;17725
290;17727
290;17729
290;17731
290;17733
289;17735
289;17737
288;17739
288;17741
288;17743
287;17745
288;17747
289;17750
290;17752
292;17754
296;17756
299;17758
304;17760
307;17762
312;17764
316;17766
320;17768
324;17770
326;17772
327;17774
327;17776
325;17778
323;17780
321;17782
318;17784
316;17786
313;17788
310;17790
309;17792
307;17794
306;17796
304;17798
303;17800
302;17802
301;17804
300;17806
299;17808
299;17810
298;17812
298;17814
297;17816
297;17818
296;17820
296;17822
296;17824
296;17826
295;17828
295;17830
295;17832
295;17835
294;17837
294;17839
294;17841
294;17843
293;17845
293;17847
293;17849
293;17851
293;17853
293;17855
293;17857
293;17859
293;17861
293;17863
293;17865
293;17867
293;17869
293;17871
293;17873
293;17875
294;17878
294;17880
294;17882
294;17884
294;17886
294;17888
295;17890
295;17892
295;17894
295;17896
295;17898
296;17900
296;17902
296;17904
296;17906
296;17908
296;17910
297;17912
297;17914
297;17916
298;17918
298;17920
298;17922
298;17924
299;17926
299;17928
299;17930
300;17932
300;17934
301;17936
301;17938
301;17940
301;17942
302;17944
302;17946
303;17948
303;17950
304;17952
304;17954
305;17956
305;17958
306;17960
306;17963
307;17965
307;17967
308;17969
309;17971
309;17973
310;17975
310;17977
311;17979
312;17981
313;17983
313;17985
314;17987
315;17989
315;17991
316;17993
316;17995
318;17997
317;17999
318;18001
319;18003
319;18006
320;18008
320;18010
321;18012
321;18014
321;18016
321;18018
322;18020
322;18022
322;18024
321;18026
321;18028
321;18030
320;18032
319;18034
319;18036
318;18038
317;18040
317;18042
315;18044
315;18046
314;18048
313;18050
312;18052
310;18054
309;18056
308;18058
307;18060
306;18062
305;18064
303;18066
302;18068
301;18070
300;18072
299;18074
298;18076
297;18078
296;18080
295;18082
294;18084
293;18086
292;18088
292;18091
291;18093
290;18095
290;18097
289;18099
288;18101
288;18103
287;18105
287;18107
286;18109
286;18111
285;18113
285;18115
285;18117
285;18119
284;18121
284;18123
284;18125
284;18127
283;18129
283;18131
283;18134
283;18136
283;18138
283;18140
283;18142
282;18144
283;18146
283;18148
283;18150
283;18152
283;18154
283;18156
283;18158
283;18160
283;18162
283;18164
283;18166
283;18168
284;18170
283;18172
284;18174
284;18176
283;18178
284;18180
284;18182
284;18184
284;18186
285;18188
285;18190
285;18192
285;18194
285;18196
285;18198
285;18200
285;18202
285;18204
285;18206
285;18208
286;18210
286;18212
286;18214
286;18216
286;18219
286;18221
287;18223
287;18225
287;18227
287;18229
287;18231
286;18233
287;18235
287;18237
287;18239
287;18241
288;18243
288;18245
288;18247
288;18249
288;18251
287;18253
288;18255
288;18257
288;18259
288;18262
288;18264
289;18266
289;18268
289;18270
289;18272
289;18274
289;18276
290;18278
290;18280
291;18282
291;18284
292;18286
292;18288
292;18290
293;18292
294;18294
294;18296
295;18298
295;18300
296;18302
296;18304
297;18306
297;18308
298;18310
299;18312
300;18314
300;18316
301;18318
302;18320
302;18322
303;18324
302;18326
303;18328
303;18330
304;18332
304;18334
304;18336
304;18338
305;18340
304;18342
304;18344
303;18347
303;18349
302;18351
302;18353
301;18355
301;18357
300;18359
299;18361
299;18363
298;18365
297;18367
297;18369
296;18371
296;18373
295;18375
295;18377
294;18379
294;18381
293;18383
293;18385
293;18387
292;18390
292;18392
292;18394
291;18396
291;18398
291;18400
290;18402
290;18404
290;18406
290;18408
290;18410
289;18412
289;18414
289;18416
289;18418
288;18420
288;18422
288;18424
288;18426
288;18428
287;18430
287;18432
287;18434
285;18436
285;18438
285;18440
284;18442
285;18444
285;18446
287;18448
290;18450
293;18452
297;18454
302;18456
306;18458
311;18460
316;18462
320;18464
324;18466
326;18468
327;18470
327;18472
326;18475
324;18477
321;18479
319;18481
316;18483
314;18485
311;18487
309;18489
307;18491
305;18493
303;18495
303;18497
301;18499
301;18501
300;18503
299;18505
298;18507
298;18509
297;18511
297;18513
296;18515
295;18518
295;18520
294;18522
294;18524
294;18526
293;18528
293;18530
293;18532
293;18534
292;18536
292;18538
292;18540
292;18542
291;18544
292;18546
291;18548
292;18550
291;18552
291;18554
291;18556
291;18558
291;18560
291;18562
291;18564
291;18566
291;18568
291;18570
292;18572
292;18574
292;18576
292;18578
292;18580
292;18582
292;18584
293;18586
293;18588
293;18590
293;18592
294;18594
294;18596
294;18598
294;18600
295;18603
295;18605
295;18607
295;18609
295;18611
296;18613
296;18615
296;18617
296;18619
297;18621
297;18623
297;18625
298;18627
298;18629
299;18631
299;18633
299;18635
300;18637
300;18639
300;18641
301;18643
301;18646
302;18648
303;18650
303;18652
304;18654
304;18656
305;18658
305;18660
306;18662
307;18664
307;18666
308;18668
309;18670
310;18672
310;18674
311;18676
311;18678
312;18680
313;18682
314;18684
314;18686
315;18688
315;18690
316;18692
317;18694
317;18696
318;18698
318;18700
319;18702
319;18704
319;18706
320;18708
320;18710
320;18712
321;18714
321;18716
321;18718
321;18720
321;18722
320;18724
320;18726
319;18728
319;18731
318;18733
318;18735
317;18737
316;18739
315;18741
314;18743
313;18745
311;18747
311;18749
309;18751
308;18753
307;18755
306;18757
304;18759
303;18761
302;18763
301;18765
300;18767
299;18769
298;18771
296;18774
296;18776
295;18778
294;18780
293;18782
292;18784
291;18786
291;18788
290;18790
289;18792
289;18794
288;18796
287;18798
287;18800
287;18802
286;18804
286;18806
285;18808
285;18810
285;18812
284;18814
284;18816
284;18818
284;18820
284;18822
283;18824
284;18826
283;18828
283;18830
283;18832
283;18834
283;18836
283;18838
283;18840
283;18842
283;18844
283;18846
283;18848
283;18850
283;18852
283;18854
283;18856
283;18859
283;18861
284;18863
284;18865
284;18867
284;18869
284;18871
284;18873
284;18875
285;18877
285;18879
285;18881
285;18883
285;18885
285;18887
285;18889
286;18891
286;18893
285;18895
286;18897
286;18899
286;18902
286;18904
286;18906
286;18908
286;18910
286;18912
286;18914
286;18916
286;18918
287;18920
287;18922
287;18924
287;18926
287;18928
287;18930
287;18932
288;18934
288;18936
288;18938
288;18940
288;18942
289;18944
288;18946
289;18948
288;18950
289;18952
288;18954
289;18956
288;18958
289;18960
289;18962
289;18964
289;18966
290;18968
289;18970
290;18972
290;18974
290;18976
290;18978
290;18980
290;18982
290;18984
290;18987
290;18989
290;18991
290;18993
291;18995
291;18997
292;18999
292;19001
293;19003
293;19005
294;19007
294;19009
295;19011
296;19013
296;19015
296;19017
297;19019
297;19021
298;19023
298;19025
299;19027
300;19030
301;19032
301;19034
302;19036
303;19038
303;19040
304;19042
304;19044
305;19046
305;19048
305;19050
305;19052
306;19054
306;19056
306;19058
307;19060
307;19062
306;19064
306;19066
305;19068
305;19070
304;19072
304;19074
304;19076
303;19078
302;19080
301;19082
301;19084
300;19086
300;19088
299;19090
298;19092
298;19094
297;19096
297;19098
296;19100
296;19102
295;19104
295;19106
294;19108
294;19110
294;19112
293;19115
293;19117
292;19119
292;19121
292;19123
292;19125
292;19127
291;19129
291;19131
291;19133
291;19135
290;19137
291;19139
290;19141
290;19143
290;19145
290;19147
289;19149
289;19151
288;19153
288;19155
287;19158
286;19160
286;19162
286;19164
286;19166
286;19168
287;19170
289;19172
292;19174
296;19176
301;19178
306;19180
310;19182
315;19184
320;19186
324;19188
327;19190
330;19192
330;19194
329;19196
327;19198
326;19200
324;19202
321;19204
319;19206
316;19208
313;19210
311;19212
309;19214
307;19216
306;19218
305;19220
304;19222
302;19224
302;19226
301;19228
300;19230
300;19232
299;19234
298;19236
298;19238
297;19240
297;19243
296;19245
296;19247
296;19249
295;19251
294;19253
294;19255
294;19257
293;19259
293;19261
293;19263
293;19265
292;19267
293;19269
292;19271
293;19273
292;19275
292;19277
292;19279
292;19281
292;19283
292;19286
292;19288
292;19290
292;19292
292;19294
292;19296
292;19298
293;19300
292;19302
293;19304
293;19306
293;19308
293;19310
293;19312
293;19314
294;19316
294;19318
294;19320
294;19322
295;19324
295;19326
295;19328
295;19330
295;19332
295;19334
296;19336
296;19338
296;19340
297;19342
297;19344
298;19346
298;19348
298;19350
299;19352
299;19354
299;19356
300;19358
301;19360
300;19362
301;19364
301;19366
302;19368
302;19371
303;19373
303;19375
304;19377
304;19379
305;19381
306;19383
306;19385
307;19387
308;19389
308;19391
309;19393
309;19395
310;19397
311;19399
312;19401
313;19403
313;19405
314;19407
314;19409
315;19411
316;19414
316;19416
317;19418
317;19420
318;19422
319;19424
319;19426
319;19428
320;19430
320;19432
321;19434
321;19436
321;19438
321;19440
321;19442
321;19444
321;19446
321;19448
320;19450
320;19452
319;19454
319;19456
318;19458
317;19460
317;19462
316;19464
315;19466
313;19468
312;19470
311;19472
310;19474
309;19476
307;19478
307;19480
305;19482
304;19484
303;19486
302;19488
300;19490
300;19492
298;19494
297;19496
296;19499
295;19501
294;19503
293;19505
292;19507
292;19509
291;19511
290;19513
289;19515
289;19517
288;19519
287;19521
287;19523
286;19525
286;19527
285;19529
285;19531
285;19533
285;19535
284;19537
284;19539
284;19542
284;19544
283;19546
283;19548
283;19550
283;19552
283;19554
282;19556
283;19558
283;19560
283;19562
283;19564
283;19566
283;19568
283;19570
283;19572
283;19574
283;19576
283;19578
283;19580
283;19582
283;19584
283;19586
283;19588
283;19590
284;19592
284;19594
284;19596
284;19598
284;19600
284;19602
284;19604
284;19606
284;19608
285;19610
285;19612
285;19614
285;19616
285;19618
286;19620
285;19622
286;19624
285;19627
286;19629
286;19631
286;19633
286;19635
286;19637
286;19639
286;19641
287;19643
286;19645
287;19647
287;19649
287;19651
287;19653
287;19655
287;19657
287;19659
287;19661
288;19663
288;19665
288;19667
288;19670
288;19672
288;19674
288;19676
289;19678
288;19680
289;19682
289;19684
289;19686
289;19688
289;19690
289;19692
289;19694
289;19696
289;19698
289;19700
289;19702
289;19704
289;19706
290;19708
290;19710
289;19712
290;19714
290;19716
290;19718
290;19720
290;19722
290;19724
290;19726
290;19728
290;19730
291;19732
291;19734
291;19736
291;19738
292;19740
292;19742
292;19744
292;19746
292;19748
292;19750
292;19752
293;19755
292;19757
293;19759
292;19761
293;19763
293;19765
293;19767
293;19769
294;19771
294;19773
295;19775
296;19777
296;19779
297;19781
297;19783
298;19785
298;19787
299;19789
299;19791
300;19793
300;19795
301;19798
301;19800
302;19802
303;19804
304;19806
304;19808
305;19810
305;19812
306;19814
306;19816
306;19818
307;19820
307;19822
307;19824
307;19826
307;19828
308;19830
307;19832
307;19834
306;19836
306;19838
306;19840
305;19842
304;19844
304;19846
303;19848
302;19850
302;19852
301;19854
300;19856
300;19858
298;19860
298;19862
298;19864
297;19866
297;19868
296;19870
296;19872
296;19874
295;19876
294;19878
294;19880
294;19883
294;19885
293;19887
293;19889
293;19891
292;19893
292;19895
292;19897
292;19899
291;19901
291;19903
291;19905
291;19907
291;19909
290;19911
290;19913
290;19915
290;19917
289;19919
289;19921
288;19923
288;19926
287;19928
286;19930
286;19932
286;19934
287;19936
288;19938
291;19940
294;19942
298;19944
303;19946
307;19948
312;19950
317;19952
322;19954
325;19956
329;19958
330;19960
330;19962
328;19964
326;19966
326;19968
322;19970
320;19972
317;19974
315;19976
312;19978
310;19980
308;19982
306;19984
305;19986
304;19988
303;19990
302;19992
301;19994
301;19996
300;19998
299;20000
299;20002
298;20004
297;20006
297;20008
296;20011
296;20013
295;20015
295;20017
294;20019
294;20021
294;20023
293;20025
293;20027
293;20029
293;20031
292;20033
292;20035
292;20037
292;20039
292;20041
292;20043
292;20045
292;20047
292;20049
292;20051
292;20054
292;20056
292;20058
292;20060
292;20062
292;20064
292;20066
292;20068
292;20070
292;20072
292;20074
293;20076
293;20078
293;20080
293;20082
294;20084
294;20086
294;20088
295;20090
295;20092
295;20094
295;20096
295;20098
296;20100
296;20102
296;20104
296;20106
297;20108
297;20110
297;20112
297;20114
298;20116
298;20118
298;20120
299;20122
299;20124
300;20126
300;20128
301;20130
301;20132
302;20134
302;20136
302;20139
303;20141
303;20143
304;20145
304;20147
306;20149
306;20151
307;20153
307;20155
308;20157
309;20159
309;20161
310;20163
311;20165
311;20167
312;20169
313;20171
313;20173
314;20175
315;20177
315;20179
316;20182
317;20184
317;20186
318;20188
318;20190
319;20192
319;20194
320;20196
320;20198
321;20200
321;20202
322;20204
321;20206
322;20208
322;20210
322;20212
321;20214
321;20216
321;20218
320;20220
320;20222
320;20224
319;20226
318;20228
317;20230
317;20232
315;20234
314;20236
313;20238
312;20240
310;20242
309;20244
308;20246
307;20248
305;20250
305;20252
303;20254
302;20256
301;20258
300;20260
299;20262
297;20264
297;20267
295;20269
295;20271
293;20273
293;20275
292;20277
291;20279
290;20281
290;20283
289;20285
288;20287
288;20289
287;20291
287;20293
286;20295
286;20297
285;20299
285;20301
284;20303
284;20305
284;20307
283;20310
283;20312
283;20314
282;20316
283;20318
282;20320
282;20322
282;20324
282;20326
282;20328
282;20330
282;20332
282;20334
282;20336
282;20338
282;20340
282;20342
282;20344
282;20346
282;20348
282;20350
282;20352
283;20354
283;20356
283;20358
283;20360
283;20362
283;20364
283;20366
283;20368
283;20370
284;20372
284;20374
284;20376
284;20378
284;20380
284;20382
285;20384
285;20386
285;20388
285;20390
285;20392
285;20395
285;20397
285;20399
285;20401
285;20403
286;20405
286;20407
286;20409
286;20411
286;20413
286;20415
286;20417
287;20419
287;20421
287;20423
287;20425
287;20427
287;20429
287;20431
287;20433
287;20435
287;20438
288;20440
287;20442
288;20444
288;20446
288;20448
288;20450
288;20452
288;20454
288;20456
289;20458
288;20460
289;20462
288;20464
289;20466
289;20468
289;20470
289;20472
289;20474
289;20476
290;20478
290;20480
290;20482
290;20484
290;20486
291;20488
291;20490
292;20492
292;20494
293;20496
293;20498
294;20500
294;20502
295;20504
295;20506
295;20508
296;20510
296;20512
297;20514
297;20516
298;20518
298;20520
299;20523
300;20525
301;20527
301;20529
302;20531
302;20533
303;20535
303;20537
303;20539
304;20541
304;20543
305;20545
305;20547
305;20549
305;20551
305;20553
305;20555
305;20557
304;20559
303;20561
303;20563
302;20566
301;20568
301;20570
300;20572
299;20574
299;20576
298;20578
298;20580
297;20582
297;20584
296;20586
296;20588
295;20590
295;20592
294;20594
294;20596
293;20598
294;20600
293;20602
292;20604
292;20606
292;20608
292;20610
291;20612
291;20614
291;20616
291;20618
290;20620
290;20622
290;20624
290;20626
290;20628
290;20630
289;20632
289;20634
289;20636
288;20638
288;20640
287;20642
287;20644
287;20646
286;20648
286;20651
286;20653
286;20655
287;20657
289;20659
291;20661
295;20663
299;20665
303;20667
307;20669
312;20671
316;20673
320;20675
323;20677
325;20679
326;20681
326;20683
324;20685
322;20687
319;20689
317;20691
315;20694
312;20696
310;20698
307;20700
306;20702
304;20704
302;20706
301;20708
300;20710
299;20712
298;20714
297;20716
297;20718
296;20720
296;20722
295;20724
295;20726
295;20728
294;20730
294;20732
294;20734
294;20736
294;20738
293;20740
293;20742
293;20744
293;20746
293;20748
293;20750
292;20752
293;20754
293;20756
293;20758
293;20760
293;20762
293;20764
293;20766
293;20768
293;20770
293;20772
293;20774
293;20776
293;20779
293;20781
294;20783
293;20785
294;20787
294;20789
294;20791
294;20793
294;20795
295;20797
295;20799
295;20801
295;20803
296;20805
296;20807
296;20809
296;20811
296;20813
297;20815
297;20817
297;20819
297;20822
298;20824
298;20826
298;20828
299;20830
299;20832
299;20834
300;20836
300;20838
300;20840
301;20842
301;20844
301;20846
302;20848
303;20850
303;20852
303;20854
304;20856
304;20858
305;20860
306;20862
306;20864
306;20866
307;20868
308;20870
308;20872
309;20874
309;20876
310;20878
311;20880
311;20882
312;20884
313;20886
313;20888
314;20890
314;20892
315;20894
316;20896
316;20898
317;20900
317;20902
318;20904
318;20907
319;20909
320;20911
320;20913
320;20915
321;20917
322;20919
322;20921
322;20923
322;20925
323;20927
323;20929
323;20931
322;20933
322;20935
322;20937
321;20939
321;20941
320;20943
319;20945
318;20947
317;20950
316;20952
315;20954
314;20956
313;20958
312;20960
311;20962
309;20964
308;20966
307;20968
306;20970
305;20972
303;20974
302;20976
301;20978
300;20980
299;20982
298;20984
297;20986
295;20988
295;20990
294;20992
293;20994
292;20996
292;20998
290;21000
290;21002
289;21004
289;21006
288;21008
288;21010
287;21012
287;21014
286;21016
286;21018
286;21020
285;21022
285;21024
284;21026
284;21028
284;21030
284;21032
283;21035
283;21037
283;21039
283;21041
283;21043
283;21045
283;21047
283;21049
283;21051
283;21053
283;21055
282;21057
283;21059
282;21061
283;21063
283;21065
283;21067
283;21069
283;21071
283;21073
283;21075
283;21078
283;21080
284;21082
283;21084
284;21086
284;21088
284;21090
284;21092
285;21094
284;21096
285;21098
284;21100
285;21102
285;21104
285;21106
285;21108
285;21110
285;21112
285;21114
286;21116
286;21118
286;21120
286;21122
286;21124
286;21126
286;21128
287;21130
287;21132
287;21134
286;21136
287;21138
287;21140
287;21142
287;21144
287;21146
287;21148
287;21150
287;21152
288;21154
287;21156
288;21158
288;21160
288;21163
288;21165
288;21167
288;21169
288;21171
289;21173
289;21175
289;21177
289;21179
290;21181
290;21183
291;21185
291;21187
292;21189
292;21191
293;21193
293;21195
294;21197
294;21199
294;21201
294;21203
295;21206
296;21208
297;21210
297;21212
298;21214
299;21216
300;21218
301;21220
301;21222
302;21224
302;21226
303;21228
303;21230
304;21232
303;21234
304;21236
304;21238
304;21240
304;21242
304;21244
304;21246
303;21248
303;21250
303;21252
302;21254
301;21256
301;21258
300;21260
299;21262
299;21264
298;21266
298;21268
297;21270
296;21272
296;21274
295;21276
295;21278
294;21280
294;21282
293;21284
293;21286
292;21288
293;21291
292;21293
292;21295
291;21297
291;21299
291;21301
291;21303
291;21305
290;21307
290;21309
290;21311
290;21313
289;21315
289;21317
289;21319
289;21321
289;21323
288;21325
288;21327
288;21329
287;21331
287;21334
287;21336
286;21338
286;21340
285;21342
285;21344
286;21346
288;21348
289;21350
292;21352
296;21354
300;21356
305;21358
308;21360
313;21362
317;21364
321;21366
323;21368
325;21370
325;21372
324;21374
323;21376
320;21378
318;21380
316;21382
313;21384
310;21386
308;21388
306;21390
304;21392
302;21394
300;21396
300;21398
298;21400
298;21402
297;21404
297;21406
296;21408
296;21410
295;21412
295;21414
295;21416
294;21419
294;21421
294;21423
294;21425
293;21427
293;21429
293;21431
293;21433
293;21435
293;21437
293;21439
292;21441
292;21443
293;21445
292;21447
293;21449
292;21451
293;21453
293;21455
293;21457
292;21459
293;21462
293;21464
293;21466
293;21468
293;21470
293;21472
293;21474
294;21476
293;21478
294;21480
294;21482
294;21484
294;21486
295;21488
295;21490
295;21492
296;21494
295;21496
296;21498
296;21500
296;21502
297;21504
297;21506
297;21508
297;21510
298;21512
298;21514
298;21516
298;21518
299;21520
299;21522
299;21524
300;21526
300;21528
300;21530
300;21532
301;21534
301;21536
302;21538
303;21540
303;21542
303;21544
304;21547
304;21549
305;21551
305;21553
306;21555
306;21557
307;21559
307;21561
308;21563
309;21565
309;21567
310;21569
310;21571
312;21573
312;21575
313;21577
313;21579
314;21581
315;21583
316;21585
316;21587
316;21590
317;21592
317;21594
318;21596
318;21598
319;21600
320;21602
320;21604
320;21606
321;21608
322;21610
322;21612
322;21614
322;21616
322;21618
322;21620
322;21622
321;21624
321;21626
320;21628
320;21630
320;21632
319;21634
319;21636
318;21638
317;21640
315;21642
315;21644
313;21646
312;21648
311;21650
310;21652
309;21654
307;21656
306;21658
305;21660
304;21662
303;21664
302;21666
301;21668
299;21670
298;21672
297;21675
296;21677
295;21679
295;21681
293;21683
293;21685
292;21687
291;21689
290;21691
289;21693
289;21695
288;21697
288;21699
287;21701
287;21703
286;21705
286;21707
285;21709
285;21711
285;21713
284;21715
284;21718
284;21720
283;21722
283;21724
283;21726
283;21728
283;21730
283;21732
283;21734
283;21736
283;21738
283;21740
283;21742
283;21744
283;21746
283;21748
283;21750
283;21752
283;21754
283;21756
283;21758
283;21760
284;21762
283;21764
283;21766
283;21768
284;21770
283;21772
284;21774
284;21776
284;21778
284;21780
284;21782
284;21784
284;21786
285;21788
285;21790
285;21792
285;21794
285;21796
285;21798
286;21800
285;21803
286;21805
286;21807
286;21809
286;21811
286;21813
286;21815
287;21817
287;21819
287;21821
287;21823
287;21825
287;21827
287;21829
287;21831
287;21833
287;21835
288;21837
288;21839
288;21841
288;21843
288;21846
289;21848
289;21850
290;21852
290;21854
291;21856
292;21858
292;21860
292;21862
293;21864
293;21866
294;21868
295;21870
295;21872
296;21874
297;21876
297;21878
297;21880
298;21882
299;21884
299;21886
300;21888
300;21890
301;21892
301;21894
302;21896
302;21898
302;21900
303;21902
303;21904
303;21906
303;21908
303;21910
302;21912
302;21914
302;21916
301;21918
301;21920
300;21922
299;21924
298;21926
298;21928
297;21931
297;21933
296;21935
296;21937
295;21939
295;21941
294;21943
293;21945
293;21947
293;21949
292;21951
292;21953
292;21955
291;21957
291;21959
290;21961
290;21963
290;21965
290;21967
289;21969
289;21971
289;21974
288;21976
289;21978
288;21980
288;21982
288;21984
288;21986
288;21988
287;21990
287;21992
287;21994
287;21996
286;21998
285;22000
285;22002
284;22004
284;22006
284;22008
285;22010
286;22012
288;22014
288;22016
292;22018
296;22020
300;22022
304;22024
309;22026
313;22028
317;22030
320;22032
323;22034
324;22036
324;22038
323;22040
321;22042
318;22044
316;22046
313;22048
311;22050
308;22052
306;22054
304;22056
302;22059
301;22061
300;22063
299;22065
298;22067
297;22069
297;22071
296;22073
296;22075
295;22077
295;22079
294;22081
294;22083
293;22085
293;22087
293;22089
293;22091
292;22093
292;22095
292;22097
292;22099
292;22102
292;22104
291;22106
291;22108
291;22110
291;22112
291;22114
291;22116
291;22118
291;22120
291;22122
291;22124
291;22126
291;22128
292;22130
292;22132
292;22134
292;22136
292;22138
292;22140
293;22142
292;22144
293;22146
293;22148
293;22150
293;22152
293;22154
294;22156
294;22158
294;22160
294;22162
295;22164
295;22166
295;22168
296;22170
296;22172
296;22174
296;22176
297;22178
297;22180
298;22182
297;22184
298;22187
298;22189
299;22191
299;22193
300;22195
300;22197
300;22199
301;22201
301;22203
302;22205
301;22207
302;22209
303;22211
303;22213
304;22215
304;22217
305;22219
305;22221
306;22223
306;22225
307;22227
308;22230
309;22232
309;22234
310;22236
311;22238
311;22240
312;22242
312;22244
313;22246
314;22248
314;22250
315;22252
316;22254
316;22256
316;22258
317;22260
317;22262
319;22264
319;22266
319;22268
320;22270
320;22272
320;22274
320;22276
321;22278
321;22280
321;22282
321;22284
321;22286
321;22288
320;22290
320;22292
319;22294
319;22296
318;22298
318;22300
317;22302
316;22304
315;22306
314;22308
313;22310
312;22312
310;22315
309;22317
308;22319
307;22321
306;22323
305;22325
304;22327
302;22329
301;22331
300;22333
299;22335
298;22337
297;22339
296;22341
295;22343
294;22345
293;22347
292;22349
291;22351
291;22353
290;22355
289;22358
288;22360
288;22362
288;22364
287;22366
286;22368
286;22370
286;22372
285;22374
285;22376
285;22378
285;22380
284;22382
284;22384
283;22386
283;22388
283;22390
283;22392
283;22394
283;22396
283;22398
283;22400
282;22402
283;22404
282;22406
283;22408
282;22410
283;22412
283;22414
283;22416
283;22418
283;22420
283;22422
283;22424
283;22426
283;22428
284;22430
284;22432
284;22434
284;22436
284;22438
284;22440
284;22443
285;22445
285;22447
285;22449
285;22451
285;22453
285;22455
285;22457
285;22459
285;22461
286;22463
286;22465
286;22467
286;22469
286;22471
287;22473
287;22475
288;22477
288;22479
288;22481
289;22483
289;22486
290;22488
290;22490
291;22492
291;22494
292;22496
292;22498
292;22500
293;22502
293;22504
294;22506
295;22508
295;22510
296;22512
297;22514
298;22516
298;22518
299;22520
300;22522
300;22524
300;22526
300;22528
301;22530
301;22532
302;22534
302;22536
302;22538
302;22540
302;22542
302;22544
301;22546
301;22548
300;22550
300;22552
299;22554
298;22556
298;22558
296;22560
296;22562
295;22564
295;22566
294;22568
294;22571
293;22573
293;22575
292;22577
291;22579
291;22581
291;22583
290;22585
290;22587
289;22589
289;22591
289;22593
288;22595
288;22597
288;22599
288;22601
288;22603
288;22605
287;22607
288;22609
287;22611
287;22614
287;22616
287;22618
286;22620
286;22622
286;22624
285;22626
285;22628
284;22630
284;22632
284;22634
283;22636
283;22638
282;22640
282;22642
283;22644
284;22646
285;22648
288;22650
292;22652
295;22654
298;22656
303;22658
307;22660
312;22662
317;22664
321;22666
324;22668
326;22670
326;22672
325;22674
323;22676
321;22678
318;22680
316;22682
313;22684
310;22686
308;22688
306;22690
304;22692
303;22694
302;22696
301;22699
300;22701
299;22703
298;22705
298;22707
297;22709
297;22711
296;22713
295;22715
295;22717
295;22719
295;22721
294;22723
293;22725
293;22727
293;22729
293;22731
292;22733
293;22735
292;22737
292;22739
292;22742
292;22744
292;22746
292;22748
292;22750
292;22752
292;22754
292;22756
292;22758
292;22760
292;22762
291;22764
292;22766
292;22768
292;22770
292;22772
292;22774
293;22776
292;22778
293;22780
293;22782
293;22784
293;22786
294;22788
294;22790
294;22792
294;22794
295;22796
295;22798
295;22800
295;22802
296;22804
296;22806
296;22808
297;22810
297;22812
297;22814
298;22816
298;22818
298;22820
298;22822
299;22824
299;22827
300;22829
300;22831
301;22833
301;22835
301;22837
301;22839
302;22841
303;22843
303;22845
304;22847
304;22849
305;22851
305;22853
305;22855
306;22857
307;22859
307;22861
308;22863
309;22865
309;22867
310;22870
311;22872
311;22874
312;22876
313;22878
314;22880
314;22882
315;22884
315;22886
316;22888
316;22890
318;22892
318;22894
318;22896
319;22898
320;22900
320;22902
320;22904
321;22906
321;22908
322;22910
322;22912
322;22914
322;22916
322;22918
322;22920
321;22922
321;22924
321;22926
320;22928
319;22930
319;22932
318;22934
317;22936
316;22938
315;22940
314;22942
313;22944
312;22946
310;22948
309;22950
308;22952
307;22955
306;22957
304;22959
304;22961
302;22963
301;22965
300;22967
299;22969
298;22971
296;22973
296;22975
295;22977
294;22979
293;22981
292;22983
292;22985
290;22987
290;22989
289;22991
289;22993
288;22995
288;22998
288;23000
287;23002
286;23004
286;23006
286;23008
285;23010
285;23012
285;23014
285;23016
284;23018
284;23020
284;23022
284;23024
283;23026
284;23028
283;23030
284;23032
284;23034
283;23036
284;23038
283;23040
283;23042
284;23044
283;23046
283;23048
284;23050
284;23052
284;23054
284;23056
284;23058
284;23060
284;23062
284;23064
284;23066
284;23068
284;23070
285;23072
284;23074
285;23076
285;23078
285;23080
285;23083
285;23085
285;23087
285;23089
286;23091
286;23093
286;23095
286;23097
286;23099
287;23101
286;23103
287;23105
286;23107
287;23109
287;23111
287;23113
288;23115
288;23117
289;23119
288;23121
289;23123
290;23126
290;23128
291;23130
291;23132
292;23134
292;23136
293;23138
293;23140
294;23142
294;23144
295;23146
296;23148
296;23150
297;23152
298;23154
299;23156
299;23158
300;23160
300;23162
301;23164
301;23166
301;23168
302;23170
302;23172
