314;2
313;4
311;6
310;8
309;10
308;12
307;14
306;16
306;18
304;20
303;22
302;24
301;26
300;28
298;30
297;32
296;34
296;36
295;38
294;40
294;43
293;45
291;47
290;49
289;51
289;53
288;55
288;57
288;59
288;61
287;63
286;65
286;67
285;69
284;71
284;73
284;75
284;77
284;79
284;81
284;83
283;86
283;88
282;90
282;92
282;94
282;96
283;98
283;100
283;102
283;104
283;106
283;108
282;110
282;112
283;114
283;116
284;118
284;120
284;122
284;124
284;126
284;128
284;130
284;132
284;134
284;136
285;138
285;140
286;142
286;144
286;146
285;148
285;150
285;152
286;154
286;156
287;158
287;160
287;162
287;164
287;166
287;168
286;171
287;173
287;175
287;177
288;179
288;181
288;183
288;185
288;187
288;189
287;191
287;193
288;195
288;197
289;199
289;201
289;203
289;205
288;207
288;209
288;211
288;214
288;216
288;218
289;220
289;222
289;224
289;226
289;228
289;230
288;232
288;234
288;236
289;238
289;240
289;242
289;244
289;246
289;248
288;250
289;252
289;254
289;256
289;258
290;260
290;262
290;264
289;266
289;268
289;270
289;272
289;274
289;276
290;278
290;280
290;282
291;284
290;286
290;288
290;290
290;292
290;294
290;296
291;299
291;301
291;303
291;305
291;307
291;309
290;311
290;313
291;315
291;317
291;319
292;321
292;323
292;325
292;327
292;329
291;331
291;333
292;335
292;337
293;339
293;342
293;344
293;346
292;348
292;350
292;352
292;354
293;356
293;358
293;360
294;362
294;364
293;366
293;368
293;370
293;372
293;374
293;376
294;378
294;380
294;382
295;384
294;386
294;388
294;390
293;392
294;394
294;396
294;398
295;400
295;402
295;404
295;406
295;408
294;410
294;412
294;414
295;416
295;418
296;420
295;422
296;424
295;427
295;429
295;431
295;433
295;435
295;437
296;439
296;441
296;443
296;445
296;447
296;449
295;451
295;453
296;455
296;457
296;459
297;461
297;463
297;465
296;467
296;470
296;472
296;474
296;476
296;478
297;480
297;482
297;484
297;486
296;488
296;490
296;492
296;494
297;496
297;498
297;500
298;502
297;504
297;506
297;508
296;510
297;512
296;514
296;516
297;518
297;520
298;522
298;524
297;526
297;528
297;530
297;532
297;534
297;536
297;538
298;540
298;542
298;544
297;546
298;548
297;550
297;552
298;555
298;557
299;559
299;561
299;563
299;565
299;567
299;569
299;571
299;573
300;575
301;577
302;579
302;581
303;583
303;585
303;587
303;589
303;591
302;593
302;595
303;598
303;600
303;602
303;604
303;606
303;608
302;610
301;612
301;614
301;616
301;618
301;620
301;622
301;624
300;626
300;628
299;630
299;632
299;634
299;636
299;638
299;640
298;642
298;644
297;646
296;648
295;650
293;652
293;654
293;656
294;658
295;660
297;662
300;664
304;666
308;668
314;670
320;672
328;674
335;676
343;678
352;680
360;683
367;685
372;687
374;689
375;691
373;693
371;695
368;697
365;699
361;701
356;703
350;705
345;707
339;709
334;711
329;713
326;715
323;717
320;719
318;721
315;723
313;726
311;728
308;730
306;732
304;734
302;736
301;738
300;740
299;742
297;744
295;746
294;748
292;750
291;752
290;754
289;756
289;758
288;760
288;762
287;764
286;766
285;768
285;770
284;772
283;774
283;776
283;778
283;780
282;782
283;784
282;786
281;788
281;790
280;792
280;794
280;796
281;798
281;800
281;802
281;804
281;806
281;808
280;811
280;813
280;815
280;817
281;819
282;821
282;823
282;825
282;827
282;829
282;831
282;833
282;835
283;837
283;839
284;841
285;843
284;845
285;847
284;849
285;851
285;854
285;856
287;858
287;860
288;862
288;864
288;866
289;868
289;870
289;872
290;874
290;876
291;878
292;880
293;882
293;884
294;886
294;888
294;890
295;892
295;894
296;896
297;898
298;900
298;902
299;904
300;906
300;908
301;910
301;912
302;914
303;916
304;918
305;920
306;922
307;924
308;926
308;928
309;930
309;932
310;934
311;936
312;939
313;941
314;943
315;945
315;947
315;949
315;951
316;953
316;955
317;957
318;959
318;961
318;963
319;965
319;967
318;969
318;971
318;973
318;975
318;977
318;979
318;982
317;984
316;986
315;988
314;990
313;992
312;994
311;996
311;998
310;1000
309;1002
308;1004
307;1006
306;1008
304;1010
303;1012
302;1014
301;1016
301;1018
300;1020
299;1022
298;1024
297;1026
296;1028
295;1030
293;1032
292;1034
292;1036
291;1038
291;1040
290;1042
290;1044
289;1046
288;1048
287;1050
286;1052
286;1054
286;1056
285;1058
285;1060
286;1062
285;1064
284;1067
284;1069
283;1071
283;1073
283;1075
283;1077
283;1079
283;1081
284;1083
283;1085
283;1087
283;1089
282;1091
282;1093
283;1095
283;1097
283;1099
284;1101
284;1103
284;1105
284;1107
284;1110
283;1112
283;1114
284;1116
284;1118
285;1120
285;1122
286;1124
285;1126
285;1128
285;1130
285;1132
285;1134
285;1136
286;1138
286;1140
287;1142
287;1144
287;1146
287;1148
287;1150
286;1152
286;1154
287;1156
287;1158
288;1160
288;1162
288;1164
288;1166
288;1168
288;1170
288;1172
288;1174
288;1176
288;1178
289;1180
289;1182
289;1184
289;1186
289;1188
288;1190
288;1192
288;1195
289;1197
289;1199
289;1201
290;1203
289;1205
289;1207
289;1209
288;1211
288;1213
288;1215
289;1217
289;1219
289;1221
290;1223
289;1225
289;1227
289;1229
289;1231
289;1233
288;1235
289;1238
289;1240
290;1242
290;1244
290;1246
289;1248
289;1250
289;1252
289;1254
289;1256
290;1258
290;1260
291;1262
291;1264
291;1266
290;1268
290;1270
290;1272
290;1274
290;1276
291;1278
291;1280
291;1282
292;1284
291;1286
291;1288
291;1290
291;1292
291;1294
291;1296
291;1298
292;1300
292;1302
292;1304
292;1306
292;1308
291;1310
291;1312
291;1314
291;1316
292;1318
292;1320
293;1323
293;1325
292;1327
292;1329
292;1331
292;1333
292;1335
292;1337
293;1339
294;1341
293;1343
294;1345
293;1347
293;1349
293;1351
293;1353
293;1355
293;1357
294;1359
294;1361
295;1363
295;1366
294;1368
294;1370
294;1372
294;1374
295;1376
295;1378
295;1380
296;1382
296;1384
296;1386
296;1388
295;1390
296;1392
295;1394
296;1396
296;1398
296;1400
297;1402
297;1404
297;1406
297;1408
297;1410
297;1412
296;1414
296;1416
297;1418
297;1420
298;1422
298;1424
298;1426
298;1428
297;1430
297;1432
298;1434
298;1436
298;1438
299;1440
299;1442
300;1444
300;1446
300;1448
300;1451
300;1453
300;1455
300;1457
301;1459
302;1461
303;1463
304;1465
304;1467
303;1469
304;1471
303;1473
304;1475
304;1477
304;1479
305;1481
305;1483
305;1485
304;1487
304;1489
303;1491
303;1494
303;1496
303;1498
303;1500
303;1502
303;1504
303;1506
302;1508
302;1510
301;1512
301;1514
301;1516
301;1518
301;1520
301;1522
301;1524
300;1526
299;1528
298;1530
297;1532
296;1534
296;1536
296;1538
295;1540
297;1542
297;1544
300;1546
303;1548
306;1550
311;1552
317;1554
324;1556
330;1558
338;1560
347;1562
354;1564
362;1566
368;1568
373;1570
375;1572
376;1574
374;1576
372;1579
369;1581
366;1583
362;1585
357;1587
352;1589
346;1591
340;1593
335;1595
331;1597
327;1599
324;1601
321;1603
318;1605
316;1607
313;1609
311;1611
308;1613
307;1615
305;1617
303;1619
302;1622
301;1624
299;1626
298;1628
296;1630
295;1632
293;1634
292;1636
291;1638
291;1640
290;1642
289;1644
289;1646
288;1648
287;1650
286;1652
285;1654
285;1656
285;1658
285;1660
285;1662
285;1664
284;1666
284;1668
283;1670
282;1672
282;1674
282;1676
282;1678
282;1680
283;1682
283;1684
283;1686
283;1688
282;1690
282;1692
282;1694
282;1696
283;1698
283;1700
283;1702
284;1704
284;1707
284;1709
283;1711
283;1713
284;1715
284;1717
285;1719
285;1721
286;1723
286;1725
286;1727
286;1729
286;1731
286;1733
287;1735
287;1737
288;1739
289;1741
289;1743
289;1745
290;1747
290;1750
290;1752
290;1754
291;1756
291;1758
292;1760
293;1762
294;1764
294;1766
294;1768
295;1770
295;1772
295;1774
296;1776
297;1778
297;1780
299;1782
299;1784
300;1786
300;1788
301;1790
301;1792
301;1794
302;1796
303;1798
304;1800
305;1802
306;1804
307;1806
307;1808
308;1810
308;1812
308;1814
309;1816
310;1818
311;1820
312;1822
313;1824
313;1826
314;1828
314;1830
314;1832
314;1835
315;1837
316;1839
316;1841
317;1843
317;1845
317;1847
317;1849
317;1851
316;1853
316;1855
316;1857
316;1859
316;1861
316;1863
315;1865
314;1867
314;1869
312;1871
312;1873
311;1875
310;1878
309;1880
309;1882
308;1884
307;1886
306;1888
305;1890
303;1892
302;1894
301;1896
300;1898
300;1900
299;1902
298;1904
297;1906
296;1908
295;1910
294;1912
293;1914
292;1916
292;1918
292;1920
291;1922
291;1924
290;1926
289;1928
289;1930
288;1932
287;1934
286;1936
286;1938
286;1940
286;1942
286;1944
285;1946
285;1948
285;1950
284;1952
284;1954
283;1956
284;1958
284;1960
284;1963
284;1965
284;1967
284;1969
284;1971
283;1973
283;1975
283;1977
284;1979
284;1981
285;1983
285;1985
284;1987
285;1989
284;1991
284;1993
284;1995
284;1997
284;1999
285;2001
286;2003
286;2006
286;2008
285;2010
285;2012
285;2014
285;2016
286;2018
286;2020
287;2022
287;2024
287;2026
287;2028
287;2030
287;2032
287;2034
287;2036
287;2038
287;2040
288;2042
288;2044
288;2046
288;2048
288;2050
287;2052
288;2054
287;2056
288;2058
288;2060
289;2062
289;2064
289;2066
289;2068
289;2070
288;2072
288;2074
288;2076
289;2078
289;2080
289;2082
290;2084
289;2086
289;2088
289;2091
288;2093
289;2095
289;2097
289;2099
290;2101
290;2103
290;2105
290;2107
290;2109
290;2111
289;2113
289;2115
289;2117
290;2119
290;2121
290;2123
291;2125
291;2127
290;2129
290;2131
289;2134
290;2136
290;2138
290;2140
291;2142
291;2144
291;2146
291;2148
291;2150
291;2152
290;2154
290;2156
291;2158
291;2160
291;2162
291;2164
291;2166
291;2168
291;2170
291;2172
291;2174
291;2176
291;2178
291;2180
292;2182
292;2184
292;2186
292;2188
292;2190
292;2192
291;2194
291;2196
292;2198
292;2200
293;2202
293;2204
293;2206
293;2208
293;2210
292;2212
293;2214
293;2216
293;2219
294;2221
294;2223
295;2225
295;2227
295;2229
295;2231
295;2233
295;2235
296;2237
296;2239
297;2241
298;2243
299;2245
299;2247
299;2249
299;2251
299;2253
299;2255
299;2257
299;2259
300;2262
300;2264
300;2266
300;2268
299;2270
299;2272
298;2274
298;2276
298;2278
298;2280
298;2282
298;2284
298;2286
298;2288
297;2290
296;2292
296;2294
296;2296
296;2298
296;2300
296;2302
296;2304
296;2306
296;2308
294;2310
294;2312
293;2314
292;2316
291;2318
292;2320
292;2322
293;2324
295;2326
296;2328
299;2330
303;2332
309;2334
314;2336
321;2338
329;2340
336;2342
345;2344
352;2347
360;2349
365;2351
370;2353
372;2355
372;2357
370;2359
369;2361
366;2363
363;2365
358;2367
353;2369
348;2371
342;2373
337;2375
332;2377
328;2379
324;2381
321;2383
318;2385
315;2387
313;2390
310;2392
308;2394
305;2396
304;2398
302;2400
301;2402
300;2404
298;2406
297;2408
295;2410
293;2412
291;2414
290;2416
289;2418
289;2420
288;2422
287;2424
287;2426
285;2428
285;2430
284;2432
283;2434
283;2436
282;2438
282;2440
282;2442
282;2444
282;2446
281;2448
281;2450
280;2452
280;2454
280;2456
280;2458
280;2460
280;2462
280;2464
280;2466
280;2468
279;2470
279;2472
279;2475
279;2477
279;2479
280;2481
281;2483
281;2485
281;2487
281;2489
281;2491
281;2493
281;2495
281;2497
281;2499
282;2501
283;2503
283;2505
283;2507
283;2509
283;2511
283;2513
284;2515
284;2518
285;2520
285;2522
286;2524
287;2526
287;2528
287;2530
287;2532
287;2534
287;2536
288;2538
289;2540
290;2542
290;2544
291;2546
292;2548
292;2550
292;2552
292;2554
293;2556
294;2558
294;2560
295;2562
296;2564
296;2566
297;2568
298;2570
298;2572
299;2574
299;2576
300;2578
301;2580
302;2582
303;2584
304;2586
304;2588
304;2590
305;2592
305;2594
306;2596
307;2598
308;2600
309;2603
309;2605
310;2607
311;2609
311;2611
311;2613
311;2615
312;2617
312;2619
313;2621
314;2623
314;2625
314;2627
314;2629
313;2631
313;2633
313;2635
313;2637
313;2639
313;2641
313;2643
312;2646
312;2648
311;2650
310;2652
309;2654
308;2656
307;2658
307;2660
306;2662
305;2664
304;2666
303;2668
302;2670
301;2672
300;2674
298;2676
298;2678
297;2680
296;2682
296;2684
295;2686
295;2688
293;2690
292;2692
291;2694
291;2696
290;2698
290;2700
290;2702
289;2704
289;2706
288;2708
287;2710
286;2712
286;2714
286;2716
285;2718
285;2720
285;2722
285;2724
285;2726
284;2728
284;2731
284;2733
283;2735
283;2737
283;2739
283;2741
283;2743
284;2745
284;2747
283;2749
283;2751
283;2753
282;2755
283;2757
283;2759
283;2761
284;2763
284;2765
284;2767
284;2769
284;2771
283;2774
283;2776
284;2778
284;2780
285;2782
285;2784
285;2786
285;2788
285;2790
285;2792
285;2794
285;2796
285;2798
285;2800
286;2802
286;2804
287;2806
287;2808
287;2810
286;2812
287;2814
286;2816
287;2818
287;2820
288;2822
288;2824
288;2826
288;2828
288;2830
288;2832
288;2834
287;2836
288;2838
288;2840
288;2842
289;2844
289;2846
289;2848
288;2850
288;2852
288;2854
288;2856
288;2859
288;2861
289;2863
289;2865
289;2867
289;2869
289;2871
289;2873
289;2875
289;2877
289;2879
289;2881
290;2883
290;2885
290;2887
290;2889
290;2891
289;2893
289;2895
289;2897
289;2899
290;2902
290;2904
290;2906
290;2908
290;2910
290;2912
289;2914
289;2916
290;2918
290;2920
290;2922
290;2924
291;2926
291;2928
290;2930
290;2932
289;2934
290;2936
290;2938
290;2940
291;2942
291;2944
291;2946
291;2948
291;2950
291;2952
291;2954
291;2956
291;2958
291;2960
292;2962
292;2964
292;2966
292;2968
292;2970
292;2972
292;2974
292;2976
292;2978
293;2980
294;2982
294;2984
294;2987
294;2989
294;2991
295;2993
294;2995
294;2997
295;2999
296;3001
297;3003
297;3005
298;3007
298;3009
298;3011
298;3013
298;3015
298;3017
299;3019
299;3021
299;3023
299;3025
299;3027
299;3030
299;3032
298;3034
298;3036
298;3038
298;3040
298;3042
298;3044
298;3046
298;3048
297;3050
297;3052
296;3054
296;3056
296;3058
296;3060
296;3062
296;3064
296;3066
295;3068
295;3070
295;3072
293;3074
293;3076
292;3078
292;3080
291;3082
291;3084
291;3086
291;3088
291;3090
293;3092
295;3094
298;3096
302;3098
308;3100
314;3102
321;3104
328;3106
335;3108
343;3110
351;3112
358;3115
365;3117
370;3119
372;3121
373;3123
372;3125
370;3127
367;3129
362;3131
357;3133
352;3135
347;3137
342;3139
336;3141
332;3143
328;3145
324;3147
320;3149
317;3151
314;3153
312;3155
309;3158
307;3160
306;3162
304;3164
302;3166
301;3168
298;3170
297;3172
295;3174
293;3176
292;3178
291;3180
290;3182
289;3184
288;3186
288;3188
286;3190
285;3192
284;3194
283;3196
283;3198
282;3200
282;3202
282;3204
282;3206
281;3208
281;3210
280;3212
280;3214
279;3216
279;3218
279;3220
279;3222
279;3224
279;3226
279;3228
279;3230
278;3232
278;3234
278;3236
278;3238
279;3240
279;3243
279;3245
280;3247
279;3249
279;3251
279;3253
279;3255
279;3257
279;3259
280;3261
281;3263
281;3265
282;3267
282;3269
282;3271
282;3273
282;3275
282;3277
282;3279
283;3281
284;3283
284;3286
285;3288
285;3290
285;3292
285;3294
286;3296
286;3298
287;3300
288;3302
288;3304
289;3306
289;3308
290;3310
290;3312
290;3314
291;3316
291;3318
292;3320
293;3322
294;3324
295;3326
295;3328
295;3330
296;3332
296;3334
297;3336
297;3338
298;3340
299;3342
301;3344
302;3346
302;3348
303;3350
304;3352
304;3354
304;3356
305;3358
306;3360
308;3362
308;3364
309;3366
310;3368
310;3371
311;3373
311;3375
311;3377
312;3379
313;3381
314;3383
314;3385
315;3387
315;3389
315;3391
315;3393
315;3395
314;3397
315;3399
315;3401
315;3403
315;3405
314;3407
314;3409
313;3411
312;3414
311;3416
310;3418
309;3420
309;3422
308;3424
308;3426
307;3428
306;3430
304;3432
303;3434
302;3436
301;3438
300;3440
299;3442
299;3444
298;3446
297;3448
296;3450
295;3452
293;3454
293;3456
292;3458
291;3460
291;3462
290;3464
290;3466
290;3468
289;3470
288;3472
287;3474
286;3476
286;3478
286;3480
285;3482
286;3484
285;3486
285;3488
285;3490
283;3492
283;3494
283;3496
282;3499
283;3501
283;3503
283;3505
283;3507
283;3509
283;3511
282;3513
282;3515
282;3517
282;3519
282;3521
283;3523
283;3525
283;3527
283;3529
283;3531
283;3533
282;3535
283;3537
283;3539
283;3542
284;3544
285;3546
285;3548
285;3550
284;3552
284;3554
285;3556
284;3558
285;3560
286;3562
286;3564
287;3566
287;3568
287;3570
287;3572
286;3574
286;3576
287;3578
287;3580
288;3582
287;3584
288;3586
288;3588
288;3590
288;3592
288;3594
288;3596
288;3598
288;3600
289;3602
289;3604
289;3606
290;3608
289;3610
289;3612
289;3614
289;3616
289;3618
289;3620
289;3622
290;3624
290;3627
290;3629
290;3631
290;3633
289;3635
289;3637
289;3639
290;3641
290;3643
290;3645
291;3647
290;3649
290;3651
290;3653
290;3655
289;3657
290;3659
290;3661
290;3663
291;3665
291;3667
291;3670
290;3672
290;3674
290;3676
290;3678
290;3680
291;3682
291;3684
291;3686
292;3688
291;3690
291;3692
291;3694
291;3696
291;3698
291;3700
291;3702
292;3704
292;3706
292;3708
292;3710
292;3712
292;3714
292;3716
291;3718
291;3720
292;3722
292;3724
293;3726
292;3728
293;3730
292;3732
292;3734
292;3736
292;3738
292;3740
292;3742
293;3744
293;3746
293;3748
293;3750
293;3752
292;3755
293;3757
292;3759
293;3761
294;3763
294;3765
294;3767
294;3769
294;3771
294;3773
293;3775
293;3777
293;3779
294;3781
294;3783
294;3785
295;3787
295;3789
295;3791
294;3793
294;3795
294;3798
294;3800
295;3802
295;3804
295;3806
295;3808
295;3810
295;3812
295;3814
295;3816
295;3818
295;3820
295;3822
296;3824
296;3826
296;3828
296;3830
296;3832
295;3834
295;3836
295;3838
295;3840
295;3842
296;3844
297;3846
297;3848
296;3850
296;3852
296;3854
296;3856
296;3858
296;3860
296;3862
297;3864
297;3866
297;3868
297;3870
296;3872
296;3874
296;3876
296;3878
297;3880
296;3883
297;3885
297;3887
297;3889
297;3891
297;3893
297;3895
297;3897
296;3899
297;3901
297;3903
297;3905
298;3907
298;3909
298;3911
297;3913
297;3915
297;3917
297;3919
297;3921
298;3923
298;3926
298;3928
298;3930
298;3932
297;3934
297;3936
297;3938
297;3940
297;3942
298;3944
299;3946
299;3948
299;3950
299;3952
299;3954
299;3956
299;3958
299;3960
300;3962
300;3964
301;3966
301;3968
301;3970
302;3972
302;3974
302;3976
302;3978
302;3980
303;3982
304;3984
304;3986
305;3988
304;3990
304;3992
304;3994
303;3996
303;3998
303;4000
303;4002
303;4004
303;4006
303;4008
303;4011
302;4013
302;4015
301;4017
301;4019
301;4021
301;4023
301;4025
301;4027
300;4029
300;4031
300;4033
299;4035
299;4037
298;4039
298;4041
298;4043
297;4045
297;4047
296;4049
295;4051
295;4054
294;4056
295;4058
297;4060
299;4062
304;4064
308;4066
314;4068
320;4070
326;4072
333;4074
341;4076
349;4078
357;4080
365;4082
371;4084
376;4086
378;4088
377;4090
375;4092
372;4094
370;4096
366;4098
362;4100
357;4102
352;4104
347;4106
342;4108
337;4110
332;4112
328;4114
325;4116
322;4118
320;4120
317;4122
315;4124
314;4126
312;4128
309;4130
307;4132
305;4134
303;4136
301;4139
300;4141
299;4143
297;4145
296;4147
295;4149
294;4151
292;4153
291;4155
290;4157
289;4159
288;4161
288;4163
287;4165
287;4167
286;4169
285;4171
285;4173
284;4175
283;4177
282;4179
282;4182
283;4184
283;4186
282;4188
282;4190
282;4192
282;4194
281;4196
281;4198
281;4200
281;4202
281;4204
282;4206
282;4208
282;4210
281;4212
281;4214
281;4216
281;4218
281;4220
282;4222
282;4224
282;4226
283;4228
283;4230
283;4232
283;4234
283;4236
283;4238
283;4240
284;4242
285;4244
285;4246
286;4248
286;4250
286;4252
286;4254
286;4256
286;4258
287;4260
287;4262
288;4264
289;4267
289;4269
290;4271
290;4273
290;4275
290;4277
291;4279
291;4281
292;4283
293;4285
294;4287
294;4289
295;4291
295;4293
295;4295
296;4297
296;4299
297;4301
298;4303
299;4305
300;4307
301;4310
302;4312
302;4314
302;4316
303;4318
304;4320
305;4322
306;4324
307;4326
308;4328
308;4330
309;4332
309;4334
309;4336
310;4338
311;4340
312;4342
313;4344
314;4346
314;4348
314;4350
315;4352
315;4354
314;4356
315;4358
315;4360
316;4362
316;4364
316;4366
317;4368
317;4370
316;4372
316;4374
315;4376
314;4378
314;4380
314;4382
313;4384
313;4386
312;4388
312;4390
311;4392
309;4395
308;4397
307;4399
307;4401
306;4403
305;4405
304;4407
303;4409
302;4411
301;4413
300;4415
298;4417
297;4419
297;4421
296;4423
296;4425
295;4427
294;4429
293;4431
292;4433
291;4435
290;4438
290;4440
290;4442
289;4444
289;4446
289;4448
288;4450
288;4452
287;4454
286;4456
286;4458
285;4460
286;4462
286;4464
285;4466
286;4468
285;4470
285;4472
285;4474
284;4476
284;4478
284;4480
284;4482
284;4484
285;4486
285;4488
285;4490
285;4492
284;4494
284;4496
284;4498
284;4500
284;4502
285;4504
285;4506
285;4508
285;4510
285;4512
285;4514
285;4516
285;4518
285;4520
286;4523
286;4525
286;4527
286;4529
286;4531
287;4533
286;4535
286;4537
286;4539
286;4541
287;4543
287;4545
288;4547
288;4549
288;4551
288;4553
288;4555
287;4557
287;4559
288;4561
288;4563
289;4566
289;4568
289;4570
289;4572
288;4574
288;4576
288;4578
288;4580
289;4582
289;4584
290;4586
289;4588
290;4590
289;4592
289;4594
289;4596
289;4598
289;4600
289;4602
289;4604
290;4606
290;4608
290;4610
290;4612
290;4614
289;4616
289;4618
289;4620
289;4622
289;4624
290;4626
290;4628
290;4630
290;4632
290;4634
289;4636
289;4638
289;4640
290;4642
290;4644
290;4646
291;4648
290;4651
290;4653
290;4655
290;4657
290;4659
289;4661
290;4663
291;4665
291;4667
291;4669
291;4671
291;4673
290;4675
290;4677
290;4679
290;4681
291;4683
291;4685
291;4687
291;4689
291;4691
291;4694
291;4696
291;4698
290;4700
291;4702
291;4704
292;4706
292;4708
292;4710
292;4712
292;4714
291;4716
291;4718
292;4720
292;4722
292;4724
292;4726
293;4728
293;4730
292;4732
292;4734
292;4736
292;4738
292;4740
292;4742
293;4744
293;4746
293;4748
294;4750
293;4752
293;4754
293;4756
293;4758
293;4760
293;4762
293;4764
294;4766
294;4768
294;4770
294;4772
293;4774
293;4776
293;4779
293;4781
294;4783
294;4785
294;4787
295;4789
294;4791
294;4793
294;4795
294;4797
294;4799
294;4801
294;4803
295;4805
295;4807
295;4809
295;4811
295;4813
294;4815
294;4817
294;4819
294;4822
295;4824
295;4826
295;4828
296;4830
295;4832
295;4834
295;4836
294;4838
295;4840
295;4842
295;4844
295;4846
295;4848
296;4850
296;4852
295;4854
295;4856
295;4858
295;4860
295;4862
295;4864
295;4866
296;4868
296;4870
296;4872
296;4874
295;4876
295;4878
295;4880
295;4882
296;4884
296;4886
297;4888
297;4890
296;4892
296;4894
296;4896
296;4898
296;4900
296;4902
296;4904
297;4907
297;4909
297;4911
297;4913
296;4915
296;4917
296;4919
296;4921
297;4923
296;4925
297;4927
297;4929
297;4931
297;4933
297;4935
296;4937
296;4939
296;4941
297;4943
297;4945
297;4947
297;4950
298;4952
297;4954
297;4956
297;4958
296;4960
297;4962
297;4964
297;4966
298;4968
298;4970
298;4972
298;4974
298;4976
297;4978
298;4980
298;4982
298;4984
299;4986
299;4988
300;4990
300;4992
300;4994
300;4996
300;4998
301;5000
301;5002
302;5004
302;5006
303;5008
303;5010
303;5012
303;5014
302;5016
302;5018
302;5020
302;5022
302;5024
302;5026
303;5028
303;5030
302;5032
301;5035
301;5037
300;5039
300;5041
300;5043
300;5045
300;5047
300;5049
299;5051
299;5053
298;5055
298;5057
297;5059
298;5061
297;5063
296;5065
296;5067
295;5069
295;5071
294;5073
293;5075
293;5078
293;5080
294;5082
297;5084
300;5086
304;5088
310;5090
315;5092
321;5094
328;5096
336;5098
343;5100
352;5102
360;5104
367;5106
373;5108
376;5110
377;5112
375;5114
373;5116
369;5118
368;5120
364;5122
359;5124
354;5126
349;5128
343;5130
338;5132
334;5134
329;5136
326;5138
323;5140
320;5142
317;5144
315;5146
313;5148
311;5150
309;5152
307;5154
305;5156
303;5158
301;5160
299;5163
298;5165
297;5167
296;5169
295;5171
293;5173
292;5175
290;5177
289;5179
288;5181
287;5183
287;5185
286;5187
286;5189
285;5191
285;5193
284;5195
283;5197
282;5199
282;5201
282;5203
282;5206
282;5208
282;5210
282;5212
281;5214
281;5216
280;5218
280;5220
280;5222
281;5224
281;5226
281;5228
281;5230
281;5232
281;5234
280;5236
281;5238
280;5240
281;5242
281;5244
282;5246
282;5248
283;5250
282;5252
283;5254
283;5256
282;5258
283;5260
283;5262
284;5264
284;5266
285;5268
286;5270
285;5272
286;5274
286;5276
286;5278
286;5280
287;5282
287;5284
288;5286
289;5288
290;5291
290;5293
290;5295
290;5297
290;5299
291;5301
291;5303
292;5305
293;5307
294;5309
294;5311
295;5313
295;5315
295;5317
296;5319
297;5321
297;5323
298;5325
299;5327
300;5329
301;5331
302;5334
302;5336
303;5338
303;5340
304;5342
305;5344
306;5346
307;5348
308;5350
309;5352
309;5354
310;5356
310;5358
311;5360
311;5362
313;5364
313;5366
314;5368
315;5370
315;5372
315;5374
315;5376
316;5378
316;5380
316;5382
317;5384
318;5386
318;5388
318;5390
318;5392
318;5394
317;5396
316;5398
316;5400
316;5402
316;5404
315;5406
315;5408
314;5410
313;5412
312;5414
311;5416
310;5419
309;5421
308;5423
307;5425
307;5427
306;5429
305;5431
303;5433
302;5435
301;5437
299;5439
299;5441
298;5443
297;5445
297;5447
296;5449
295;5451
294;5453
292;5455
291;5457
290;5459
290;5462
289;5464
289;5466
289;5468
288;5470
288;5472
287;5474
286;5476
286;5478
285;5480
285;5482
285;5484
285;5486
285;5488
285;5490
284;5492
284;5494
283;5496
283;5498
283;5500
283;5502
283;5504
283;5506
283;5508
283;5510
283;5512
283;5514
283;5516
282;5518
282;5520
283;5522
283;5524
283;5526
284;5528
284;5530
284;5532
284;5534
284;5536
284;5538
284;5540
284;5542
284;5544
285;5547
285;5549
286;5551
286;5553
286;5555
286;5557
285;5559
285;5561
286;5563
286;5565
287;5567
287;5569
287;5571
287;5573
287;5575
287;5577
287;5579
287;5581
288;5583
288;5585
288;5587
289;5590
289;5592
289;5594
288;5596
288;5598
288;5600
288;5602
288;5604
289;5606
290;5608
289;5610
290;5612
290;5614
289;5616
289;5618
289;5620
289;5622
289;5624
290;5626
290;5628
290;5630
290;5632
290;5634
290;5636
290;5638
289;5640
289;5642
290;5644
290;5646
290;5648
291;5650
290;5652
290;5654
290;5656
290;5658
290;5660
290;5662
290;5664
291;5666
291;5668
291;5670
291;5672
291;5675
291;5677
291;5679
290;5681
291;5683
291;5685
291;5687
292;5689
292;5691
291;5693
292;5695
291;5697
291;5699
291;5701
291;5703
292;5705
292;5707
293;5709
292;5711
292;5713
292;5715
291;5718
292;5720
292;5722
292;5724
293;5726
293;5728
293;5730
293;5732
293;5734
293;5736
293;5738
292;5740
293;5742
293;5744
293;5746
294;5748
295;5750
294;5752
294;5754
293;5756
293;5758
294;5760
293;5762
294;5764
294;5766
295;5768
295;5770
295;5772
295;5774
295;5776
294;5778
294;5780
294;5782
294;5784
295;5786
295;5788
295;5790
295;5792
295;5794
295;5796
295;5798
295;5800
295;5803
295;5805
295;5807
296;5809
296;5811
296;5813
296;5815
295;5817
295;5819
295;5821
295;5823
296;5825
296;5827
296;5829
296;5831
296;5833
296;5835
295;5837
295;5839
295;5841
296;5843
296;5846
296;5848
296;5850
296;5852
296;5854
296;5856
295;5858
295;5860
295;5862
296;5864
297;5866
296;5868
297;5870
297;5872
296;5874
296;5876
296;5878
296;5880
296;5882
296;5884
297;5886
297;5888
297;5890
297;5892
297;5894
297;5896
296;5898
296;5900
296;5902
296;5904
297;5906
297;5908
297;5910
297;5912
297;5914
297;5916
296;5918
296;5920
297;5922
297;5924
297;5926
298;5928
298;5931
297;5933
297;5935
297;5937
296;5939
296;5941
297;5943
297;5945
297;5947
297;5949
297;5951
297;5953
297;5955
297;5957
297;5959
297;5961
297;5963
297;5965
298;5967
299;5969
299;5971
299;5974
299;5976
298;5978
299;5980
299;5982
299;5984
300;5986
301;5988
302;5990
302;5992
302;5994
302;5996
302;5998
302;6000
302;6002
303;6004
302;6006
303;6008
303;6010
303;6012
303;6014
302;6016
302;6018
301;6020
301;6022
301;6024
301;6026
301;6028
301;6030
301;6032
300;6034
300;6036
299;6038
299;6040
298;6042
298;6044
298;6046
298;6048
298;6050
298;6052
297;6054
296;6056
295;6059
294;6061
293;6063
293;6065
293;6067
293;6069
294;6071
296;6073
298;6075
301;6077
305;6079
310;6081
316;6083
323;6085
331;6087
339;6089
347;6091
355;6093
362;6095
368;6097
372;6099
375;6102
375;6104
373;6106
371;6108
368;6110
364;6112
359;6114
353;6116
347;6118
342;6120
336;6122
332;6124
329;6126
325;6128
323;6130
320;6132
317;6134
315;6136
312;6138
309;6140
307;6142
306;6144
305;6146
304;6148
302;6150
300;6152
299;6154
297;6156
295;6158
293;6160
292;6162
291;6164
290;6166
290;6168
289;6170
288;6172
287;6174
286;6176
285;6178
284;6180
283;6182
283;6184
283;6187
282;6189
282;6191
282;6193
282;6195
281;6197
280;6199
280;6201
280;6203
280;6205
280;6207
280;6209
280;6211
280;6213
280;6215
280;6217
279;6219
279;6221
279;6223
280;6225
280;6227
281;6230
281;6232
281;6234
281;6236
281;6238
280;6240
281;6242
281;6244
282;6246
283;6248
283;6250
283;6252
283;6254
283;6256
283;6258
284;6260
284;6262
285;6264
285;6266
286;6268
287;6270
287;6272
287;6274
287;6276
287;6278
287;6280
288;6282
288;6284
289;6286
290;6288
291;6290
291;6292
291;6294
292;6296
292;6298
292;6300
293;6302
294;6304
295;6306
295;6308
296;6310
297;6312
297;6315
298;6317
298;6319
298;6321
299;6323
300;6325
301;6327
303;6329
304;6331
304;6333
305;6335
305;6337
306;6339
306;6341
307;6343
308;6345
309;6347
311;6349
311;6351
312;6353
312;6355
312;6358
313;6360
313;6362
314;6364
315;6366
316;6368
317;6370
317;6372
317;6374
317;6376
317;6378
317;6380
317;6382
316;6384
317;6386
317;6388
317;6390
316;6392
315;6394
314;6396
313;6398
313;6400
312;6402
311;6404
311;6406
310;6408
309;6410
308;6412
307;6414
306;6416
304;6418
303;6420
302;6422
301;6424
300;6426
299;6428
298;6430
297;6432
296;6434
294;6436
294;6438
292;6440
291;6443
291;6445
290;6447
290;6449
289;6451
288;6453
288;6455
287;6457
286;6459
285;6461
285;6463
284;6465
284;6467
284;6469
284;6471
283;6473
283;6475
282;6477
281;6479
281;6481
281;6483
281;6486
281;6488
281;6490
281;6492
281;6494
281;6496
280;6498
280;6500
280;6502
280;6504
280;6506
281;6508
281;6510
281;6512
281;6514
280;6516
281;6518
280;6520
280;6522
281;6524
281;6526
282;6528
283;6530
282;6532
282;6534
282;6536
282;6538
282;6540
282;6542
283;6544
283;6546
284;6548
285;6550
285;6552
284;6554
285;6556
284;6558
284;6560
284;6562
285;6564
285;6566
286;6568
286;6571
286;6573
286;6575
286;6577
286;6579
286;6581
286;6583
287;6585
287;6587
288;6589
288;6591
287;6593
288;6595
287;6597
287;6599
287;6601
287;6603
287;6605
288;6607
288;6609
288;6611
289;6614
288;6616
288;6618
288;6620
288;6622
288;6624
288;6626
289;6628
289;6630
289;6632
289;6634
289;6636
289;6638
288;6640
288;6642
289;6644
289;6646
289;6648
290;6650
289;6652
290;6654
289;6656
289;6658
289;6660
288;6662
289;6664
289;6666
290;6668
290;6670
290;6672
290;6674
290;6676
289;6678
289;6680
289;6682
289;6684
290;6686
290;6688
290;6690
291;6692
290;6694
290;6696
290;6699
290;6701
290;6703
290;6705
291;6707
291;6709
291;6711
291;6713
291;6715
291;6717
290;6719
290;6721
290;6723
291;6725
291;6727
292;6729
292;6731
292;6733
291;6735
291;6737
291;6739
291;6742
291;6744
291;6746
292;6748
292;6750
292;6752
292;6754
292;6756
292;6758
292;6760
292;6762
292;6764
293;6766
293;6768
294;6770
294;6772
294;6774
294;6776
294;6778
294;6780
295;6782
295;6784
295;6786
296;6788
296;6790
297;6792
298;6794
298;6796
298;6798
298;6800
298;6802
299;6804
299;6806
300;6808
300;6810
300;6812
300;6814
299;6816
299;6818
299;6820
299;6822
299;6824
299;6827
299;6829
299;6831
299;6833
298;6835
298;6837
297;6839
297;6841
297;6843
296;6845
296;6847
297;6849
296;6851
296;6853
296;6855
295;6857
295;6859
294;6861
293;6863
293;6865
292;6867
292;6870
291;6872
291;6874
291;6876
291;6878
292;6880
295;6882
298;6884
303;6886
309;6888
315;6890
322;6892
329;6894
337;6896
344;6898
352;6900
359;6902
366;6904
371;6906
373;6908
374;6910
373;6912
370;6914
367;6916
363;6918
358;6920
353;6922
348;6924
343;6926
338;6928
333;6930
329;6932
325;6934
321;6936
318;6938
315;6940
313;6942
311;6944
309;6946
307;6948
306;6950
304;6952
302;6955
300;6957
298;6959
296;6961
295;6963
294;6965
293;6967
292;6969
291;6971
290;6973
289;6975
288;6977
287;6979
286;6981
285;6983
285;6985
285;6987
284;6989
284;6991
284;6993
283;6995
282;6998
282;7000
281;7002
281;7004
281;7006
281;7008
281;7010
281;7012
281;7014
281;7016
281;7018
280;7020
280;7022
280;7024
280;7026
281;7028
281;7030
281;7032
282;7034
282;7036
281;7038
281;7040
281;7042
281;7044
282;7046
283;7048
283;7050
284;7052
284;7054
284;7056
284;7058
284;7060
284;7062
284;7064
285;7066
286;7068
286;7070
287;7072
288;7074
288;7076
288;7078
288;7080
288;7083
289;7085
290;7087
291;7089
291;7091
292;7093
293;7095
293;7097
293;7099
293;7101
294;7103
295;7105
295;7107
296;7109
297;7111
298;7113
298;7115
299;7117
299;7119
299;7121
300;7123
301;7126
302;7128
303;7130
305;7132
306;7134
306;7136
306;7138
307;7140
308;7142
308;7144
310;7146
311;7148
312;7150
313;7152
314;7154
314;7156
315;7158
315;7160
316;7162
317;7164
317;7166
318;7168
319;7170
320;7172
320;7174
320;7176
320;7178
320;7180
320;7182
320;7184
320;7186
320;7188
321;7190
320;7192
320;7194
319;7196
318;7198
317;7200
317;7202
315;7204
315;7206
314;7208
313;7211
312;7213
311;7215
310;7217
308;7219
307;7221
306;7223
304;7225
304;7227
303;7229
302;7231
301;7233
300;7235
299;7237
297;7239
295;7241
295;7243
293;7245
293;7247
292;7249
292;7251
291;7254
290;7256
289;7258
288;7260
287;7262
287;7264
286;7266
286;7268
286;7270
285;7272
285;7274
284;7276
283;7278
283;7280
282;7282
282;7284
282;7286
282;7288
282;7290
282;7292
282;7294
282;7296
281;7298
281;7300
281;7302
280;7304
281;7306
281;7308
282;7310
282;7312
282;7314
282;7316
281;7318
281;7320
281;7322
281;7324
282;7326
282;7328
283;7330
283;7332
283;7334
283;7336
283;7339
283;7341
283;7343
283;7345
284;7347
284;7349
285;7351
285;7353
285;7355
285;7357
284;7359
285;7361
285;7363
285;7365
286;7367
286;7369
287;7371
287;7373
287;7375
287;7377
286;7379
286;7382
287;7384
287;7386
287;7388
288;7390
288;7392
288;7394
288;7396
288;7398
288;7400
287;7402
288;7404
288;7406
288;7408
289;7410
289;7412
289;7414
289;7416
288;7418
288;7420
288;7422
288;7424
289;7426
289;7428
289;7430
289;7432
290;7434
290;7436
289;7438
289;7440
289;7442
289;7444
289;7446
289;7448
290;7450
290;7452
290;7454
290;7456
289;7458
289;7460
289;7462
289;7464
290;7467
290;7469
290;7471
291;7473
291;7475
290;7477
290;7479
290;7481
290;7483
290;7485
290;7487
291;7489
291;7491
291;7493
291;7495
291;7497
291;7499
290;7501
290;7503
291;7505
291;7507
292;7510
292;7512
292;7514
292;7516
292;7518
291;7520
291;7522
291;7524
292;7526
292;7528
293;7530
293;7532
293;7534
293;7536
293;7538
293;7540
293;7542
292;7544
293;7546
293;7548
294;7550
294;7552
294;7554
294;7556
294;7558
293;7560
293;7562
293;7564
294;7566
294;7568
294;7570
295;7572
295;7574
295;7576
295;7578
294;7580
294;7582
294;7584
294;7586
295;7588
295;7590
295;7592
295;7595
295;7597
295;7599
295;7601
295;7603
295;7605
295;7607
295;7609
296;7611
296;7613
295;7615
295;7617
295;7619
295;7621
295;7623
295;7625
295;7627
296;7629
296;7631
296;7633
296;7635
296;7638
296;7640
295;7642
295;7644
296;7646
296;7648
297;7650
296;7652
297;7654
297;7656
296;7658
296;7660
296;7662
296;7664
296;7666
297;7668
297;7670
297;7672
297;7674
297;7676
297;7678
296;7680
297;7682
296;7684
297;7686
297;7688
297;7690
298;7692
298;7694
297;7696
297;7698
297;7700
297;7702
297;7704
297;7706
298;7708
298;7710
298;7712
298;7714
298;7716
298;7718
297;7720
297;7723
297;7725
298;7727
298;7729
298;7731
298;7733
299;7735
298;7737
298;7739
298;7741
297;7743
297;7745
298;7747
298;7749
299;7751
299;7753
298;7755
299;7757
298;7759
298;7761
298;7763
298;7766
298;7768
299;7770
299;7772
299;7774
299;7776
299;7778
299;7780
299;7782
299;7784
299;7786
300;7788
301;7790
301;7792
301;7794
301;7796
301;7798
302;7800
302;7802
302;7804
303;7806
303;7808
304;7810
304;7812
304;7814
304;7816
304;7818
304;7820
303;7822
303;7824
303;7826
303;7828
304;7830
304;7832
303;7834
303;7836
302;7838
302;7840
301;7842
301;7844
301;7846
301;7848
301;7851
301;7853
301;7855
301;7857
300;7859
299;7861
299;7863
298;7865
298;7867
298;7869
297;7871
297;7873
296;7875
295;7877
294;7879
294;7881
294;7883
296;7885
298;7887
303;7889
307;7891
313;7894
318;7896
325;7898
331;7900
339;7902
347;7904
355;7906
363;7908
369;7910
375;7912
377;7914
377;7916
375;7918
372;7920
369;7922
365;7924
360;7926
355;7928
350;7930
345;7932
340;7934
337;7936
333;7938
328;7940
324;7942
321;7944
319;7946
316;7948
315;7950
313;7952
311;7954
308;7956
306;7958
304;7960
302;7962
301;7964
299;7966
298;7968
297;7970
296;7972
295;7974
293;7976
292;7979
290;7981
289;7983
288;7985
288;7987
287;7989
287;7991
287;7993
286;7995
285;7997
284;7999
283;8001
283;8003
283;8005
283;8007
283;8009
282;8011
283;8013
282;8015
282;8017
282;8019
281;8022
281;8024
281;8026
281;8028
282;8030
282;8032
282;8034
282;8036
282;8038
282;8040
281;8042
281;8044
282;8046
282;8048
283;8050
283;8052
284;8054
284;8056
283;8058
283;8060
283;8062
283;8064
284;8066
284;8068
285;8070
286;8072
286;8074
287;8076
286;8078
286;8080
287;8082
287;8084
288;8086
288;8088
289;8090
290;8092
290;8094
290;8096
291;8098
290;8100
291;8102
291;8104
292;8107
293;8109
293;8111
295;8113
295;8115
295;8117
296;8119
296;8121
296;8123
297;8125
298;8127
299;8129
300;8131
301;8133
302;8135
302;8137
303;8139
303;8141
304;8143
305;8145
305;8147
307;8150
308;8152
308;8154
309;8156
309;8158
310;8160
310;8162
311;8164
312;8166
312;8168
314;8170
315;8172
315;8174
316;8176
316;8178
316;8180
316;8182
316;8184
317;8186
318;8188
318;8190
318;8192
319;8194
319;8196
318;8198
318;8200
318;8202
317;8204
317;8206
317;8208
316;8210
316;8212
315;8214
315;8216
314;8218
312;8220
312;8222
310;8224
310;8226
309;8228
308;8230
308;8232
306;8235
306;8237
304;8239
303;8241
302;8243
301;8245
300;8247
299;8249
299;8251
298;8253
297;8255
296;8257
295;8259
294;8261
293;8263
292;8265
292;8267
292;8269
291;8271
291;8273
290;8275
289;8278
288;8280
288;8282
287;8284
287;8286
287;8288
287;8290
287;8292
287;8294
286;8296
286;8298
285;8300
285;8302
284;8304
285;8306
285;8308
285;8310
286;8312
285;8314
286;8316
285;8318
285;8320
285;8322
284;8324
285;8326
284;8328
285;8330
285;8332
286;8334
286;8336
285;8338
285;8340
285;8342
285;8344
286;8346
286;8348
286;8350
287;8352
287;8354
287;8356
287;8358
287;8360
287;8363
287;8365
287;8367
288;8369
288;8371
288;8373
288;8375
288;8377
288;8379
288;8381
288;8383
288;8385
288;8387
289;8389
289;8391
289;8393
289;8395
289;8397
289;8399
289;8401
288;8403
289;8406
289;8408
290;8410
290;8412
290;8414
290;8416
290;8418
290;8420
289;8422
289;8424
289;8426
290;8428
290;8430
291;8432
290;8434
290;8436
290;8438
290;8440
290;8442
290;8444
290;8446
290;8448
291;8450
291;8452
291;8454
291;8456
291;8458
291;8460
290;8462
290;8464
290;8466
291;8468
291;8470
291;8472
292;8474
292;8476
291;8478
291;8480
290;8482
290;8484
291;8486
291;8488
291;8491
292;8493
292;8495
292;8497
292;8499
291;8501
291;8503
291;8505
291;8507
292;8509
292;8511
293;8513
292;8515
292;8517
292;8519
292;8521
292;8523
292;8525
292;8527
293;8529
293;8531
294;8534
293;8536
294;8538
293;8540
293;8542
293;8544
293;8546
293;8548
294;8550
294;8552
294;8554
295;8556
295;8558
294;8560
294;8562
294;8564
294;8566
295;8568
295;8570
296;8572
296;8574
296;8576
296;8578
295;8580
295;8582
294;8584
294;8586
295;8588
295;8590
296;8592
295;8594
296;8596
295;8598
295;8600
295;8602
295;8604
295;8606
295;8608
295;8610
296;8612
296;8614
296;8616
296;8619
295;8621
295;8623
295;8625
295;8627
295;8629
296;8631
297;8633
297;8635
297;8637
296;8639
296;8641
296;8643
296;8645
296;8647
297;8649
297;8651
297;8653
297;8655
297;8657
297;8659
297;8662
296;8664
296;8666
297;8668
297;8670
297;8672
298;8674
298;8676
298;8678
297;8680
297;8682
297;8684
298;8686
298;8688
298;8690
299;8692
299;8694
300;8696
299;8698
299;8700
300;8702
299;8704
300;8706
301;8708
302;8710
302;8712
303;8714
303;8716
303;8718
303;8720
302;8722
303;8724
302;8726
303;8728
303;8730
303;8732
304;8734
303;8736
303;8738
302;8740
301;8742
301;8744
301;8747
301;8749
301;8751
301;8753
301;8755
301;8757
300;8759
300;8761
299;8763
299;8765
299;8767
298;8769
299;8771
299;8773
299;8775
298;8777
296;8779
296;8781
295;8783
294;8785
294;8787
295;8790
296;8792
298;8794
300;8796
304;8798
308;8800
313;8802
319;8804
326;8806
334;8808
341;8810
349;8812
357;8814
364;8816
370;8818
373;8820
375;8822
374;8824
372;8826
370;8828
368;8830
366;8832
361;8834
357;8836
352;8838
346;8840
341;8842
335;8844
331;8846
327;8848
324;8850
322;8852
319;8854
316;8856
314;8858
311;8860
309;8862
307;8864
305;8866
304;8868
302;8870
301;8872
300;8875
298;8877
296;8879
295;8881
293;8883
292;8885
290;8887
290;8889
289;8891
288;8893
288;8895
287;8897
286;8899
286;8901
284;8903
284;8905
284;8907
283;8909
283;8911
283;8913
283;8915
283;8918
282;8920
281;8922
281;8924
280;8926
280;8928
281;8930
281;8932
281;8934
281;8936
281;8938
281;8940
281;8942
281;8944
280;8946
281;8948
281;8950
282;8952
282;8954
282;8956
282;8958
282;8960
282;8962
282;8964
282;8966
283;8968
283;8970
284;8972
284;8974
285;8976
285;8978
285;8980
285;8982
285;8984
285;8986
286;8988
287;8990
287;8992
288;8994
288;8996
288;8998
288;9000
288;9003
288;9005
289;9007
290;9009
291;9011
291;9013
292;9015
293;9017
292;9019
293;9021
293;9023
293;9025
294;9027
295;9029
296;9031
297;9033
297;9035
298;9037
298;9039
299;9041
299;9043
300;9046
301;9048
301;9050
303;9052
304;9054
304;9056
305;9058
305;9060
306;9062
306;9064
307;9066
308;9068
308;9070
310;9072
310;9074
311;9076
311;9078
312;9080
312;9082
312;9084
313;9086
313;9088
314;9090
314;9092
315;9094
315;9096
315;9098
315;9100
315;9102
314;9104
314;9106
314;9108
314;9110
314;9112
314;9114
313;9116
312;9118
312;9120
311;9122
310;9124
309;9126
308;9128
308;9131
307;9133
306;9135
305;9137
304;9139
303;9141
302;9143
301;9145
299;9147
299;9149
298;9151
298;9153
297;9155
296;9157
295;9159
294;9161
293;9163
292;9165
291;9167
291;9169
290;9171
290;9174
289;9176
288;9178
288;9180
287;9182
286;9184
286;9186
286;9188
286;9190
286;9192
286;9194
286;9196
285;9198
284;9200
284;9202
283;9204
283;9206
284;9208
283;9210
284;9212
284;9214
284;9216
284;9218
283;9220
283;9222
283;9224
283;9226
283;9228
284;9230
284;9232
284;9234
285;9236
284;9238
284;9240
284;9242
284;9244
283;9246
284;9248
284;9250
285;9252
286;9254
286;9256
286;9259
286;9261
285;9263
285;9265
286;9267
286;9269
286;9271
287;9273
287;9275
287;9277
287;9279
287;9281
286;9283
287;9285
286;9287
287;9289
287;9291
288;9293
288;9295
288;9297
288;9299
287;9302
287;9304
287;9306
287;9308
288;9310
288;9312
289;9314
289;9316
289;9318
288;9320
288;9322
288;9324
288;9326
288;9328
288;9330
289;9332
289;9334
289;9336
289;9338
289;9340
289;9342
289;9344
288;9346
288;9348
289;9350
289;9352
290;9354
289;9356
290;9358
289;9360
289;9362
289;9364
289;9366
289;9368
289;9370
290;9372
290;9374
290;9376
290;9378
290;9380
290;9382
289;9384
289;9387
290;9389
290;9391
291;9393
291;9395
291;9397
291;9399
290;9401
290;9403
290;9405
290;9407
291;9409
291;9411
291;9413
292;9415
292;9417
291;9419
291;9421
291;9423
291;9425
291;9427
291;9430
292;9432
293;9434
292;9436
292;9438
292;9440
292;9442
292;9444
291;9446
292;9448
292;9450
293;9452
293;9454
293;9456
293;9458
293;9460
293;9462
292;9464
292;9466
293;9468
293;9470
293;9472
294;9474
294;9476
294;9478
293;9480
293;9482
293;9484
292;9486
292;9488
293;9490
293;9492
294;9494
294;9496
294;9498
293;9500
292;9502
293;9504
293;9506
293;9508
294;9510
294;9512
295;9515
295;9517
295;9519
295;9521
295;9523
295;9525
295;9527
295;9529
296;9531
297;9533
297;9535
298;9537
298;9539
298;9541
298;9543
299;9545
299;9547
299;9549
300;9551
301;9553
301;9555
300;9558
300;9560
300;9562
300;9564
299;9566
299;9568
299;9570
299;9572
300;9574
300;9576
299;9578
299;9580
298;9582
298;9584
297;9586
297;9588
297;9590
297;9592
297;9594
297;9596
297;9598
297;9600
296;9602
295;9604
294;9606
294;9608
294;9610
293;9612
293;9614
293;9616
292;9618
292;9620
292;9622
293;9624
296;9626
299;9628
304;9630
309;9632
316;9634
323;9636
329;9638
337;9640
344;9643
352;9645
359;9647
366;9649
371;9651
373;9653
374;9655
372;9657
369;9659
366;9661
362;9663
357;9665
353;9667
348;9669
343;9671
338;9673
333;9675
329;9677
325;9679
321;9681
318;9683
315;9686
312;9688
311;9690
309;9692
307;9694
305;9696
303;9698
301;9700
299;9702
297;9704
296;9706
294;9708
293;9710
292;9712
291;9714
290;9716
289;9718
288;9720
286;9722
286;9724
285;9726
284;9728
283;9730
283;9732
283;9734
283;9736
282;9738
281;9740
280;9742
280;9744
279;9746
279;9748
279;9750
279;9752
279;9754
279;9756
279;9758
278;9760
278;9762
277;9764
278;9766
278;9768
278;9771
278;9773
278;9775
279;9777
279;9779
279;9781
278;9783
278;9785
279;9787
279;9789
279;9791
280;9793
280;9795
281;9797
281;9799
281;9801
281;9803
281;9805
281;9807
282;9809
283;9811
283;9814
284;9816
284;9818
284;9820
284;9822
284;9824
285;9826
285;9828
286;9830
287;9832
287;9834
288;9836
288;9838
289;9840
289;9842
289;9844
289;9846
290;9848
291;9850
292;9852
293;9854
293;9856
293;9858
294;9860
294;9862
294;9864
295;9866
296;9868
296;9870
298;9872
299;9874
300;9876
300;9878
301;9880
301;9882
302;9884
302;9886
303;9888
304;9890
305;9892
307;9894
308;9896
308;9899
308;9901
309;9903
309;9905
310;9907
310;9909
311;9911
312;9913
313;9915
314;9917
314;9919
314;9921
314;9923
314;9925
314;9927
314;9929
315;9931
315;9933
315;9935
315;9937
314;9939
314;9942
313;9944
312;9946
311;9948
311;9950
311;9952
310;9954
310;9956
309;9958
307;9960
306;9962
305;9964
304;9966
303;9968
302;9970
301;9972
301;9974
300;9976
299;9978
297;9980
296;9982
296;9984
295;9986
294;9988
293;9990
293;9992
292;9994
292;9996
291;9998
290;10000
289;10002
288;10004
287;10006
287;10008
286;10010
286;10012
286;10014
286;10016
285;10018
285;10020
284;10022
283;10024
283;10027
283;10029
283;10031
283;10033
283;10035
283;10037
283;10039
282;10041
282;10043
281;10045
281;10047
281;10049
281;10051
282;10053
282;10055
282;10057
283;10059
282;10061
282;10063
282;10065
282;10067
282;10070
282;10072
283;10074
284;10076
284;10078
284;10080
283;10082
283;10084
283;10086
283;10088
284;10090
284;10092
285;10094
285;10096
286;10098
286;10100
285;10102
285;10104
285;10106
286;10108
286;10110
286;10112
287;10114
287;10116
287;10118
287;10120
287;10122
287;10124
287;10126
287;10128
287;10130
288;10132
288;10134
289;10136
289;10138
288;10140
288;10142
288;10144
288;10146
288;10148
288;10150
289;10152
289;10155
289;10157
289;10159
289;10161
289;10163
288;10165
288;10167
288;10169
289;10171
289;10173
290;10175
290;10177
290;10179
290;10181
289;10183
289;10185
289;10187
289;10189
290;10191
290;10193
290;10195
291;10198
290;10200
290;10202
290;10204
290;10206
290;10208
290;10210
291;10212
291;10214
291;10216
291;10218
291;10220
291;10222
290;10224
290;10226
290;10228
291;10230
291;10232
291;10234
292;10236
292;10238
292;10240
291;10242
291;10244
291;10246
291;10248
291;10250
292;10252
293;10254
292;10256
293;10258
293;10260
292;10262
292;10264
291;10266
292;10268
292;10270
293;10272
293;10274
293;10276
294;10278
293;10280
293;10283
293;10285
292;10287
292;10289
293;10291
293;10293
294;10295
294;10297
294;10299
294;10301
293;10303
293;10305
293;10307
293;10309
293;10311
294;10313
295;10315
294;10317
294;10319
294;10321
294;10323
294;10326
294;10328
294;10330
294;10332
295;10334
294;10336
295;10338
295;10340
294;10342
294;10344
294;10346
294;10348
294;10350
294;10352
295;10354
295;10356
295;10358
295;10360
294;10362
294;10364
294;10366
294;10368
295;10370
294;10372
295;10374
295;10376
296;10378
295;10380
295;10382
295;10384
294;10386
294;10388
295;10390
295;10392
295;10394
296;10396
296;10398
296;10400
295;10402
295;10404
295;10406
295;10408
295;10411
295;10413
296;10415
296;10417
296;10419
296;10421
296;10423
296;10425
296;10427
297;10429
297;10431
297;10433
298;10435
298;10437
299;10439
299;10441
299;10443
299;10445
299;10447
300;10449
301;10451
301;10454
302;10456
301;10458
301;10460
301;10462
300;10464
301;10466
300;10468
300;10470
301;10472
301;10474
301;10476
301;10478
300;10480
300;10482
299;10484
298;10486
298;10488
298;10490
298;10492
298;10494
298;10496
298;10498
298;10500
297;10502
297;10504
296;10506
295;10508
295;10510
295;10512
295;10514
294;10516
293;10518
292;10520
292;10522
291;10524
291;10526
292;10528
294;10530
298;10532
302;10534
307;10536
313;10539
319;10541
326;10543
332;10545
340;10547
348;10549
357;10551
364;10553
370;10555
374;10557
375;10559
374;10561
372;10563
368;10565
364;10567
360;10569
355;10571
350;10573
345;10575
340;10577
335;10579
330;10582
326;10584
323;10586
320;10588
317;10590
315;10592
313;10594
311;10596
308;10598
307;10600
304;10602
302;10604
300;10606
298;10608
297;10610
296;10612
295;10614
294;10616
292;10618
291;10620
289;10622
288;10624
287;10626
286;10628
286;10630
285;10632
285;10634
284;10636
284;10638
283;10640
282;10642
281;10644
281;10646
280;10648
280;10650
280;10652
280;10654
280;10656
280;10658
279;10660
279;10662
279;10664
278;10667
279;10669
278;10671
279;10673
279;10675
279;10677
280;10679
279;10681
279;10683
279;10685
279;10687
279;10689
279;10691
280;10693
281;10695
281;10697
281;10699
281;10701
281;10703
281;10705
281;10707
282;10710
283;10712
283;10714
284;10716
284;10718
284;10720
285;10722
284;10724
285;10726
285;10728
286;10730
286;10732
287;10734
288;10736
288;10738
289;10740
289;10742
289;10744
290;10746
290;10748
290;10750
291;10752
292;10754
293;10756
294;10758
294;10760
294;10762
295;10764
295;10766
296;10768
296;10770
298;10772
299;10774
300;10776
300;10778
301;10780
301;10782
302;10784
302;10786
303;10788
304;10790
305;10792
306;10795
307;10797
308;10799
308;10801
309;10803
310;10805
310;10807
311;10809
312;10811
313;10813
314;10815
314;10817
315;10819
315;10821
316;10823
315;10825
316;10827
316;10829
317;10831
317;10833
318;10835
318;10838
318;10840
318;10842
317;10844
317;10846
316;10848
316;10850
315;10852
315;10854
315;10856
314;10858
313;10860
312;10862
310;10864
309;10866
308;10868
307;10870
306;10872
306;10874
305;10876
304;10878
303;10880
302;10882
301;10884
299;10886
298;10888
297;10890
297;10892
296;10894
295;10896
295;10898
294;10900
293;10902
291;10904
290;10906
290;10908
289;10910
289;10912
289;10914
288;10916
288;10918
287;10920
286;10923
286;10925
285;10927
285;10929
284;10931
284;10933
284;10935
284;10937
284;10939
284;10941
283;10943
283;10945
282;10947
283;10949
283;10951
283;10953
284;10955
284;10957
283;10959
283;10961
283;10963
282;10966
283;10968
283;10970
283;10972
284;10974
284;10976
284;10978
284;10980
284;10982
284;10984
284;10986
284;10988
284;10990
285;10992
285;10994
286;10996
286;10998
286;11000
286;11002
285;11004
285;11006
286;11008
286;11010
286;11012
287;11014
287;11016
288;11018
288;11020
287;11022
287;11024
287;11026
287;11028
288;11030
288;11032
288;11034
289;11036
289;11038
289;11040
289;11042
288;11044
288;11046
288;11048
288;11051
289;11053
289;11055
290;11057
290;11059
290;11061
290;11063
289;11065
289;11067
289;11069
289;11071
290;11073
290;11075
290;11077
290;11079
290;11081
290;11083
289;11085
289;11087
290;11089
290;11091
290;11094
291;11096
290;11098
291;11100
291;11102
290;11104
290;11106
290;11108
290;11110
290;11112
290;11114
291;11116
291;11118
291;11120
291;11122
290;11124
290;11126
290;11128
290;11130
291;11132
291;11134
291;11136
291;11138
292;11140
292;11142
291;11144
291;11146
291;11148
291;11150
291;11152
292;11154
292;11156
292;11158
292;11160
292;11162
292;11164
291;11166
291;11168
292;11170
292;11172
292;11174
293;11176
293;11179
293;11181
293;11183
292;11185
292;11187
292;11189
293;11191
293;11193
293;11195
294;11197
294;11199
294;11201
294;11203
293;11205
294;11207
293;11209
294;11211
294;11213
294;11215
295;11217
295;11219
295;11222
295;11224
294;11226
294;11228
294;11230
294;11232
295;11234
295;11236
295;11238
296;11240
295;11242
295;11244
295;11246
294;11248
295;11250
295;11252
295;11254
296;11256
296;11258
296;11260
296;11262
295;11264
295;11266
295;11268
295;11270
295;11272
296;11274
296;11276
296;11278
296;11280
296;11282
296;11284
295;11286
295;11288
295;11290
296;11292
296;11294
297;11296
297;11298
297;11300
296;11302
296;11304
296;11307
296;11309
296;11311
296;11313
297;11315
297;11317
297;11319
297;11321
296;11323
296;11325
296;11327
296;11329
296;11331
296;11333
296;11335
297;11337
297;11339
297;11341
297;11343
296;11345
296;11347
296;11350
296;11352
296;11354
297;11356
297;11358
297;11360
297;11362
296;11364
296;11366
296;11368
296;11370
297;11372
297;11374
297;11376
297;11378
297;11380
297;11382
297;11384
297;11386
297;11388
296;11390
296;11392
297;11394
297;11396
298;11398
298;11400
297;11402
297;11404
297;11406
296;11408
297;11410
297;11412
297;11414
297;11416
298;11418
298;11420
297;11422
297;11424
297;11426
296;11428
297;11430
297;11432
297;11435
298;11437
298;11439
299;11441
298;11443
298;11445
298;11447
299;11449
298;11451
299;11453
300;11455
300;11457
301;11459
301;11461
301;11463
301;11465
301;11467
301;11469
302;11471
302;11473
303;11475
303;11478
303;11480
303;11482
302;11484
302;11486
302;11488
301;11490
301;11492
302;11494
302;11496
302;11498
301;11500
301;11502
301;11504
300;11506
300;11508
299;11510
299;11512
299;11514
299;11516
300;11518
299;11520
299;11522
298;11524
297;11526
297;11528
296;11530
296;11532
295;11534
295;11536
294;11538
294;11540
294;11542
294;11544
294;11546
295;11548
299;11550
303;11552
308;11554
314;11556
320;11558
327;11560
334;11563
342;11565
350;11567
357;11569
365;11571
371;11573
375;11575
377;11577
376;11579
374;11581
371;11583
367;11585
362;11587
357;11589
352;11591
347;11593
341;11595
337;11597
332;11599
328;11601
325;11603
321;11606
319;11608
316;11610
314;11612
312;11614
310;11616
308;11618
307;11620
304;11622
302;11624
300;11626
299;11628
297;11630
296;11632
295;11634
294;11636
293;11638
292;11640
290;11642
289;11644
288;11646
287;11648
286;11650
286;11652
286;11654
285;11656
285;11658
284;11660
284;11662
283;11664
282;11666
282;11668
281;11670
281;11672
281;11674
281;11676
281;11678
281;11680
281;11682
280;11684
280;11686
279;11688
280;11691
280;11693
281;11695
281;11697
281;11699
281;11701
281;11703
281;11705
280;11707
280;11709
281;11711
281;11713
282;11715
282;11717
282;11719
282;11721
283;11723
282;11725
283;11727
283;11729
283;11731
284;11734
284;11736
286;11738
286;11740
286;11742
286;11744
286;11746
286;11748
287;11750
287;11752
288;11754
289;11756
289;11758
290;11760
290;11762
290;11764
291;11766
291;11768
291;11770
292;11772
293;11774
294;11776
294;11778
295;11780
295;11782
296;11784
296;11786
296;11788
297;11790
298;11792
299;11794
300;11796
301;11798
301;11800
302;11802
302;11804
303;11806
303;11808
304;11810
305;11812
306;11814
307;11816
308;11819
309;11821
309;11823
310;11825
311;11827
311;11829
312;11831
313;11833
314;11835
315;11837
315;11839
316;11841
316;11843
316;11845
316;11847
317;11849
317;11851
317;11853
318;11855
318;11857
318;11859
318;11862
318;11864
317;11866
316;11868
316;11870
315;11872
315;11874
315;11876
314;11878
314;11880
312;11882
311;11884
310;11886
309;11888
308;11890
307;11892
306;11894
305;11896
305;11898
303;11900
302;11902
301;11904
300;11906
299;11908
298;11910
297;11912
296;11914
296;11916
295;11918
294;11920
293;11922
292;11924
291;11926
290;11928
289;11930
289;11932
288;11934
288;11936
288;11938
287;11940
287;11942
286;11944
285;11947
285;11949
284;11951
284;11953
285;11955
284;11957
284;11959
284;11961
283;11963
283;11965
283;11967
282;11969
282;11971
283;11973
283;11975
283;11977
283;11979
284;11981
283;11983
283;11985
283;11987
282;11990
283;11992
283;11994
284;11996
284;11998
284;12000
284;12002
284;12004
284;12006
284;12008
284;12010
284;12012
285;12014
285;12016
285;12018
286;12020
285;12022
285;12024
285;12026
285;12028
285;12030
285;12032
286;12034
286;12036
287;12038
287;12040
287;12042
287;12044
287;12046
287;12048
286;12050
287;12052
287;12054
288;12056
288;12058
288;12060
288;12062
288;12064
287;12066
287;12068
288;12070
288;12072
288;12075
288;12077
289;12079
289;12081
289;12083
289;12085
288;12087
288;12089
288;12091
288;12093
289;12095
289;12097
290;12099
290;12101
289;12103
289;12105
289;12107
289;12109
289;12111
289;12113
290;12115
290;12118
290;12120
290;12122
290;12124
289;12126
289;12128
289;12130
289;12132
290;12134
290;12136
290;12138
290;12140
290;12142
290;12144
290;12146
289;12148
289;12150
289;12152
290;12154
291;12156
290;12158
291;12160
291;12162
290;12164
290;12166
290;12168
290;12170
290;12172
290;12174
291;12176
291;12178
291;12180
291;12182
291;12184
291;12186
291;12188
291;12190
291;12192
292;12194
292;12196
292;12198
293;12200
292;12203
292;12205
292;12207
291;12209
292;12211
292;12213
292;12215
293;12217
293;12219
294;12221
293;12223
293;12225
293;12227
292;12229
293;12231
293;12233
293;12235
294;12237
294;12239
294;12241
294;12243
294;12246
293;12248
294;12250
293;12252
294;12254
294;12256
295;12258
295;12260
295;12262
294;12264
294;12266
294;12268
294;12270
294;12272
295;12274
295;12276
295;12278
295;12280
295;12282
295;12284
295;12286
295;12288
294;12290
295;12292
295;12294
295;12296
296;12298
296;12300
296;12302
296;12304
295;12306
295;12308
295;12310
295;12312
296;12314
296;12316
296;12318
296;12320
296;12322
296;12324
295;12326
295;12328
295;12331
295;12333
296;12335
296;12337
296;12339
297;12341
296;12343
296;12345
296;12347
296;12349
296;12351
296;12353
296;12355
296;12357
297;12359
297;12361
297;12363
297;12365
296;12367
296;12369
296;12371
296;12374
297;12376
297;12378
297;12380
298;12382
297;12384
297;12386
297;12388
296;12390
297;12392
297;12394
298;12396
298;12398
298;12400
298;12402
298;12404
297;12406
297;12408
297;12410
297;12412
297;12414
298;12416
298;12418
299;12420
298;12422
298;12424
298;12426
298;12428
297;12430
297;12432
298;12434
298;12436
298;12438
298;12440
299;12442
298;12444
298;12446
298;12448
298;12450
299;12452
299;12454
300;12456
300;12459
300;12461
301;12463
301;12465
301;12467
301;12469
301;12471
302;12473
303;12475
303;12477
304;12479
304;12481
304;12483
303;12485
303;12487
303;12489
302;12491
303;12493
303;12495
303;12497
303;12499
303;12502
303;12504
302;12506
301;12508
301;12510
301;12512
301;12514
301;12516
301;12518
301;12520
300;12522
300;12524
299;12526
298;12528
298;12530
298;12532
298;12534
298;12536
297;12538
297;12540
295;12542
295;12544
294;12546
293;12548
293;12550
294;12552
295;12554
298;12556
301;12558
306;12560
311;12562
317;12564
323;12566
330;12568
338;12570
346;12572
354;12574
362;12576
369;12578
374;12580
377;12582
377;12584
375;12587
373;12589
369;12591
365;12593
360;12595
356;12597
351;12599
345;12601
340;12603
335;12605
330;12607
326;12609
323;12611
320;12613
318;12615
316;12617
314;12619
312;12621
309;12623
307;12625
305;12627
303;12630
301;12632
300;12634
299;12636
298;12638
297;12640
295;12642
294;12644
293;12646
291;12648
290;12650
289;12652
288;12654
288;12656
287;12658
287;12660
286;12662
285;12664
284;12666
283;12668
283;12670
283;12672
283;12674
283;12676
283;12678
283;12680
283;12682
282;12684
281;12686
281;12688
280;12690
281;12692
281;12694
281;12696
282;12698
282;12700
282;12702
281;12704
281;12706
281;12708
281;12710
281;12712
282;12715
282;12717
283;12719
283;12721
283;12723
283;12725
283;12727
283;12729
283;12731
284;12733
285;12735
285;12737
285;12739
286;12741
286;12743
286;12745
286;12747
286;12749
286;12751
287;12753
288;12755
289;12758
289;12760
290;12762
290;12764
290;12766
290;12768
290;12770
291;12772
292;12774
293;12776
294;12778
295;12780
295;12782
295;12784
296;12786
296;12788
296;12790
297;12792
298;12794
299;12796
300;12798
300;12800
301;12802
302;12804
302;12806
303;12808
303;12810
304;12812
305;12814
306;12816
307;12818
308;12820
309;12822
309;12824
310;12826
310;12828
311;12830
312;12832
313;12834
314;12836
315;12838
316;12840
316;12843
316;12845
317;12847
317;12849
317;12851
318;12853
318;12855
319;12857
320;12859
320;12861
320;12863
319;12865
319;12867
319;12869
318;12871
318;12873
318;12875
318;12877
318;12879
317;12881
316;12883
315;12886
313;12888
312;12890
311;12892
310;12894
310;12896
309;12898
308;12900
307;12902
306;12904
304;12906
303;12908
302;12910
301;12912
300;12914
299;12916
298;12918
297;12920
296;12922
295;12924
294;12926
293;12928
292;12930
291;12932
291;12934
290;12936
289;12938
289;12940
288;12942
288;12944
286;12946
286;12948
285;12950
285;12952
285;12954
284;12956
284;12958
284;12960
284;12962
283;12964
283;12966
282;12968
282;12971
282;12973
282;12975
282;12977
283;12979
283;12981
282;12983
282;12985
282;12987
282;12989
282;12991
282;12993
282;12995
282;12997
283;12999
283;13001
283;13003
283;13005
283;13007
282;13009
283;13011
283;13014
283;13016
284;13018
284;13020
285;13022
284;13024
284;13026
284;13028
284;13030
284;13032
284;13034
285;13036
286;13038
286;13040
286;13042
286;13044
286;13046
286;13048
285;13050
286;13052
286;13054
286;13056
287;13058
287;13060
287;13062
287;13064
287;13066
286;13068
286;13070
286;13072
287;13074
287;13076
287;13078
288;13080
288;13082
288;13084
287;13086
287;13088
287;13090
287;13092
287;13094
288;13096
288;13099
288;13101
288;13103
288;13105
288;13107
288;13109
287;13111
288;13113
288;13115
288;13117
289;13119
289;13121
289;13123
289;13125
288;13127
288;13129
288;13131
288;13133
289;13135
289;13137
289;13139
290;13142
289;13144
289;13146
289;13148
289;13150
289;13152
289;13154
289;13156
290;13158
290;13160
290;13162
290;13164
290;13166
290;13168
289;13170
289;13172
289;13174
290;13176
291;13178
290;13180
291;13182
291;13184
290;13186
290;13188
290;13190
290;13192
290;13194
290;13196
291;13198
291;13200
291;13202
292;13204
291;13206
291;13208
291;13210
291;13212
291;13214
292;13216
292;13218
293;13220
292;13222
292;13224
292;13227
292;13229
292;13231
292;13233
292;13235
293;13237
293;13239
294;13241
293;13243
293;13245
293;13247
293;13249
293;13251
293;13253
293;13255
294;13257
294;13259
294;13261
294;13263
294;13265
294;13267
293;13270
293;13272
294;13274
294;13276
294;13278
294;13280
295;13282
295;13284
294;13286
294;13288
294;13290
294;13292
294;13294
295;13296
295;13298
296;13300
295;13302
295;13304
295;13306
295;13308
295;13310
294;13312
295;13314
295;13316
296;13318
296;13320
296;13322
296;13324
296;13326
295;13328
295;13330
295;13332
295;13334
296;13336
296;13338
297;13340
296;13342
296;13344
296;13346
296;13348
296;13350
296;13352
296;13355
296;13357
297;13359
297;13361
297;13363
297;13365
297;13367
296;13369
296;13371
296;13373
297;13375
297;13377
297;13379
298;13381
297;13383
297;13385
297;13387
297;13389
297;13391
297;13393
297;13395
298;13398
298;13400
298;13402
298;13404
298;13406
297;13408
297;13410
297;13412
297;13414
297;13416
298;13418
298;13420
298;13422
298;13424
298;13426
297;13428
297;13430
297;13432
298;13434
298;13436
299;13438
299;13440
299;13442
299;13444
299;13446
299;13448
299;13450
299;13452
300;13454
300;13456
301;13458
303;13460
303;13462
303;13464
303;13466
302;13468
303;13470
302;13472
303;13474
303;13476
303;13478
304;13480
304;13483
303;13485
303;13487
302;13489
302;13491
301;13493
302;13495
301;13497
302;13499
302;13501
301;13503
300;13505
300;13507
299;13509
299;13511
298;13513
299;13515
299;13517
299;13519
299;13521
298;13523
297;13526
296;13528
295;13530
294;13532
293;13534
293;13536
293;13538
294;13540
295;13542
297;13544
300;13546
304;13548
309;13550
315;13552
322;13554
329;13556
337;13558
345;13560
353;13562
361;13564
367;13566
370;13568
374;13570
376;13572
375;13574
373;13576
371;13578
367;13580
363;13582
358;13584
352;13586
347;13588
341;13590
336;13592
331;13594
327;13596
324;13598
321;13600
319;13602
316;13604
313;13606
311;13608
309;13611
306;13613
305;13615
303;13617
302;13619
301;13621
299;13623
297;13625
295;13627
294;13629
292;13631
291;13633
290;13635
290;13637
289;13639
288;13641
287;13643
287;13645
285;13647
284;13649
284;13651
283;13654
283;13656
283;13658
283;13660
283;13662
282;13664
281;13666
281;13668
280;13670
280;13672
280;13674
280;13676
280;13678
280;13680
281;13682
281;13684
280;13686
280;13688
280;13690
280;13692
280;13694
280;13696
281;13698
281;13700
281;13702
281;13704
281;13706
281;13708
281;13710
281;13712
282;13714
282;13716
283;13718
283;13720
284;13722
284;13724
284;13726
284;13728
284;13730
284;13732
285;13734
285;13736
286;13739
287;13741
287;13743
288;13745
288;13747
288;13749
288;13751
289;13753
289;13755
290;13757
291;13759
292;13761
292;13763
293;13765
293;13767
293;13769
294;13771
294;13773
295;13775
296;13777
297;13779
298;13782
299;13784
299;13786
299;13788
300;13790
300;13792
301;13794
302;13796
303;13798
304;13800
305;13802
306;13804
307;13806
307;13808
308;13810
308;13812
309;13814
311;13816
311;13818
312;13820
313;13822
313;13824
314;13826
314;13828
314;13830
315;13832
316;13834
317;13836
317;13838
318;13840
319;13842
319;13844
319;13846
319;13848
318;13850
319;13852
319;13854
319;13856
319;13858
319;13860
319;13862
318;13864
317;13867
316;13869
316;13871
315;13873
314;13875
313;13877
313;13879
312;13881
312;13883
310;13885
309;13887
307;13889
306;13891
305;13893
304;13895
303;13897
302;13899
302;13901
300;13903
299;13905
298;13907
296;13910
295;13912
294;13914
294;13916
293;13918
292;13920
292;13922
291;13924
290;13926
289;13928
288;13930
287;13932
287;13934
287;13936
287;13938
286;13940
286;13942
285;13944
285;13946
284;13948
283;13950
283;13952
283;13954
283;13956
283;13958
283;13960
283;13962
283;13964
283;13966
283;13968
282;13970
282;13972
282;13974
282;13976
283;13978
283;13980
283;13982
283;13984
283;13986
282;13988
283;13990
282;13992
283;13995
283;13997
284;13999
284;14001
284;14003
284;14005
284;14007
284;14009
284;14011
284;14013
285;14015
285;14017
285;14019
286;14021
286;14023
286;14025
286;14027
285;14029
286;14031
286;14033
286;14035
287;14038
287;14040
288;14042
288;14044
287;14046
287;14048
287;14050
287;14052
287;14054
287;14056
288;14058
288;14060
288;14062
288;14064
288;14066
288;14068
287;14070
287;14072
287;14074
288;14076
288;14078
288;14080
289;14082
288;14084
289;14086
288;14088
288;14090
288;14092
288;14094
289;14096
289;14098
289;14100
290;14102
289;14104
289;14106
289;14108
289;14110
289;14112
289;14114
289;14116
290;14118
290;14120
291;14123
290;14125
290;14127
290;14129
290;14131
290;14133
290;14135
291;14137
291;14139
291;14141
291;14143
291;14145
291;14147
291;14149
291;14151
291;14153
291;14155
291;14157
292;14159
293;14161
292;14163
293;14166
292;14168
292;14170
292;14172
292;14174
292;14176
293;14178
293;14180
294;14182
293;14184
293;14186
293;14188
293;14190
293;14192
293;14194
293;14196
294;14198
294;14200
295;14202
295;14204
295;14206
294;14208
294;14210
294;14212
294;14214
295;14216
295;14218
295;14220
296;14222
295;14224
296;14226
295;14228
295;14230
295;14232
295;14234
295;14236
296;14238
296;14240
297;14242
297;14244
296;14246
296;14248
296;14251
295;14253
296;14255
296;14257
297;14259
297;14261
297;14263
297;14265
297;14267
297;14269
297;14271
296;14273
297;14275
297;14277
297;14279
298;14281
298;14283
298;14285
298;14287
297;14289
297;14291
297;14294
297;14296
297;14298
298;14300
298;14302
298;14304
298;14306
298;14308
297;14310
297;14312
298;14314
298;14316
298;14318
298;14320
299;14322
299;14324
298;14326
298;14328
298;14330
298;14332
298;14334
299;14336
299;14338
299;14340
300;14342
300;14344
300;14346
300;14348
300;14350
300;14352
300;14354
301;14356
301;14358
302;14360
303;14362
303;14364
304;14366
304;14368
303;14370
304;14372
304;14374
304;14376
304;14379
305;14381
305;14383
305;14385
304;14387
304;14389
303;14391
303;14393
303;14395
303;14397
303;14399
303;14401
303;14403
303;14405
301;14407
301;14409
300;14411
300;14413
300;14415
300;14417
300;14419
300;14422
300;14424
300;14426
299;14428
298;14430
297;14432
296;14434
296;14436
296;14438
295;14440
296;14442
297;14444
298;14446
301;14448
304;14450
309;14452
314;14454
321;14456
328;14458
335;14460
343;14462
347;14464
355;14466
362;14468
368;14470
372;14472
375;14474
375;14476
374;14478
372;14480
369;14482
366;14484
361;14486
356;14488
351;14490
345;14492
341;14494
335;14496
331;14498
328;14500
324;14502
321;14504
318;14507
315;14509
313;14511
310;14513
308;14515
307;14517
305;14519
304;14521
302;14523
301;14525
299;14527
297;14529
296;14531
294;14533
293;14535
292;14537
292;14539
290;14541
290;14543
289;14545
288;14547
287;14550
286;14552
285;14554
285;14556
285;14558
285;14560
284;14562
284;14564
284;14566
283;14568
283;14570
282;14572
282;14574
282;14576
282;14578
282;14580
282;14582
282;14584
282;14586
282;14588
281;14590
281;14592
281;14594
281;14596
282;14598
283;14600
283;14602
283;14604
283;14606
282;14608
283;14610
283;14612
283;14614
283;14616
284;14618
284;14620
285;14622
285;14624
285;14626
285;14628
285;14630
285;14632
286;14635
286;14637
287;14639
287;14641
288;14643
288;14645
288;14647
288;14649
288;14651
289;14653
289;14655
290;14657
290;14659
292;14661
292;14663
293;14665
293;14667
292;14669
293;14671
294;14673
294;14675
295;14678
296;14680
297;14682
298;14684
298;14686
298;14688
299;14690
299;14692
299;14694
301;14696
301;14698
303;14700
304;14702
304;14704
305;14706
305;14708
306;14710
306;14712
307;14714
308;14716
309;14718
309;14720
310;14722
311;14724
311;14726
312;14728
312;14730
312;14732
313;14734
313;14736
314;14738
315;14740
316;14742
316;14744
316;14746
316;14748
316;14750
316;14752
316;14754
316;14756
316;14758
317;14760
316;14763
316;14765
315;14767
315;14769
314;14771
313;14773
312;14775
312;14777
311;14779
311;14781
310;14783
309;14785
308;14787
306;14789
305;14791
304;14793
303;14795
303;14797
302;14799
301;14801
300;14803
299;14806
298;14808
296;14810
295;14812
295;14814
294;14816
293;14818
293;14820
292;14822
292;14824
291;14826
290;14828
289;14830
288;14832
288;14834
287;14836
287;14838
287;14840
287;14842
286;14844
286;14846
286;14848
285;14850
285;14852
284;14854
284;14856
284;14858
285;14860
285;14862
284;14864
284;14866
284;14868
283;14870
283;14872
283;14874
283;14876
284;14878
284;14880
284;14882
284;14884
284;14886
284;14888
284;14891
284;14893
284;14895
284;14897
284;14899
285;14901
285;14903
285;14905
285;14907
285;14909
285;14911
285;14913
285;14915
285;14917
286;14919
286;14921
286;14923
286;14925
286;14927
286;14929
286;14931
286;14934
286;14936
286;14938
287;14940
287;14942
288;14944
287;14946
288;14948
287;14950
287;14952
287;14954
287;14956
288;14958
288;14960
289;14962
289;14964
289;14966
288;14968
288;14970
288;14972
288;14974
289;14976
288;14978
289;14980
289;14982
289;14984
289;14986
289;14988
289;14990
288;14992
288;14994
288;14996
289;14998
289;15000
290;15002
289;15004
289;15006
289;15008
289;15010
289;15012
289;15014
289;15016
289;15019
289;15021
290;15023
290;15025
290;15027
290;15029
289;15031
289;15033
289;15035
290;15037
290;15039
291;15041
291;15043
291;15045
291;15047
291;15049
290;15051
290;15053
290;15055
290;15057
291;15059
291;15062
291;15064
291;15066
291;15068
291;15070
291;15072
291;15074
291;15076
291;15078
292;15080
292;15082
292;15084
292;15086
292;15088
291;15090
291;15092
291;15094
291;15096
292;15098
292;15100
293;15102
293;15104
293;15106
293;15108
292;15110
292;15112
292;15114
292;15116
293;15118
293;15120
294;15122
294;15124
294;15126
294;15128
294;15130
294;15132
294;15134
295;15136
295;15138
296;15140
296;15142
297;15144
298;15147
298;15149
298;15151
298;15153
298;15155
299;15157
299;15159
300;15161
300;15163
300;15165
300;15167
299;15169
299;15171
299;15173
299;15175
299;15177
299;15179
299;15181
299;15183
299;15185
298;15187
297;15190
297;15192
296;15194
296;15196
296;15198
296;15200
297;15202
297;15204
296;15206
296;15208
295;15210
294;15212
294;15214
293;15216
293;15218
292;15220
292;15222
292;15224
292;15226
292;15228
292;15230
293;15232
295;15234
299;15236
303;15238
310;15240
316;15242
323;15244
330;15246
337;15248
345;15250
353;15252
360;15254
366;15256
370;15258
372;15260
373;15262
371;15264
369;15266
365;15268
361;15270
357;15272
352;15275
347;15277
342;15279
337;15281
332;15283
328;15285
324;15287
320;15289
318;15291
314;15293
312;15295
310;15297
308;15299
306;15301
304;15303
302;15305
301;15307
298;15309
297;15311
295;15313
293;15315
292;15318
292;15320
291;15322
290;15324
289;15326
287;15328
286;15330
285;15332
284;15334
284;15336
284;15338
283;15340
283;15342
282;15344
281;15346
281;15348
280;15350
280;15352
280;15354
279;15356
280;15358
280;15360
280;15362
280;15364
280;15366
279;15368
279;15370
279;15372
279;15374
279;15376
279;15378
279;15380
280;15382
281;15384
280;15386
280;15388
280;15390
279;15392
280;15394
280;15396
280;15398
281;15400
281;15403
282;15405
282;15407
282;15409
282;15411
282;15413
282;15415
283;15417
283;15419
284;15421
285;15423
285;15425
285;15427
285;15429
286;15431
285;15433
286;15435
286;15437
287;15439
288;15441
289;15443
289;15446
289;15448
289;15450
290;15452
290;15454
290;15456
292;15458
293;15460
293;15462
294;15464
295;15466
295;15468
295;15470
295;15472
296;15474
297;15476
298;15478
299;15480
300;15482
301;15484
302;15486
302;15488
302;15490
302;15492
304;15494
304;15496
305;15498
306;15500
307;15502
308;15504
308;15506
309;15508
309;15510
309;15512
310;15514
311;15516
311;15518
312;15520
313;15522
313;15524
314;15526
314;15528
314;15531
313;15533
314;15535
314;15537
314;15539
314;15541
314;15543
314;15545
314;15547
313;15549
312;15551
311;15553
311;15555
310;15557
309;15559
309;15561
309;15563
308;15565
307;15567
306;15569
304;15571
303;15574
302;15576
301;15578
301;15580
300;15582
299;15584
298;15586
297;15588
295;15590
294;15592
293;15594
293;15596
292;15598
292;15600
291;15602
290;15604
290;15606
289;15608
288;15610
287;15612
286;15614
286;15616
286;15618
285;15620
285;15622
285;15624
285;15626
284;15628
283;15630
283;15632
282;15634
282;15636
282;15638
282;15640
282;15642
283;15644
282;15646
282;15648
282;15650
281;15652
281;15654
281;15656
281;15659
282;15661
282;15663
282;15665
283;15667
282;15669
282;15671
281;15673
281;15675
282;15677
282;15679
283;15681
283;15683
284;15685
283;15687
283;15689
283;15691
283;15693
283;15695
283;15697
284;15699
284;15702
285;15704
285;15706
285;15708
285;15710
285;15712
285;15714
285;15716
285;15718
286;15720
286;15722
286;15724
287;15726
287;15728
286;15730
286;15732
286;15734
286;15736
287;15738
287;15740
288;15742
287;15744
287;15746
287;15748
287;15750
287;15752
287;15754
287;15756
287;15758
288;15760
288;15762
288;15764
288;15766
288;15768
288;15770
288;15772
288;15774
288;15776
288;15778
288;15780
288;15782
289;15784
289;15787
289;15789
288;15791
288;15793
288;15795
288;15797
288;15799
289;15801
289;15803
289;15805
289;15807
289;15809
289;15811
288;15813
289;15815
289;15817
289;15819
289;15821
290;15823
290;15825
290;15827
290;15830
289;15832
289;15834
290;15836
289;15838
290;15840
291;15842
291;15844
291;15846
291;15848
290;15850
290;15852
290;15854
290;15856
290;15858
291;15860
291;15862
291;15864
291;15866
291;15868
291;15870
291;15872
291;15874
291;15876
291;15878
292;15880
292;15882
293;15884
292;15886
293;15888
292;15890
292;15892
292;15894
292;15896
293;15898
294;15900
294;15902
295;15904
295;15906
295;15908
295;15910
295;15912
295;15915
295;15917
296;15919
297;15921
298;15923
299;15925
299;15927
298;15929
298;15931
298;15933
298;15935
298;15937
298;15939
299;15941
299;15943
299;15945
299;15947
299;15949
298;15951
298;15953
297;15955
297;15958
297;15960
297;15962
297;15964
297;15966
297;15968
296;15970
296;15972
296;15974
295;15976
295;15978
295;15980
295;15982
295;15984
295;15986
294;15988
293;15990
292;15992
291;15994
290;15996
291;15998
291;16000
291;16002
293;16004
295;16006
297;16008
300;16010
305;16012
310;16014
316;16016
323;16018
331;16020
339;16022
347;16024
355;16026
362;16028
368;16030
371;16032
373;16034
373;16036
371;16038
369;16040
366;16043
362;16045
357;16047
352;16049
346;16051
340;16053
335;16055
330;16057
326;16059
323;16061
320;16063
318;16065
315;16067
312;16069
310;16071
307;16073
305;16075
303;16077
302;16079
300;16081
299;16083
297;16086
295;16088
294;16090
292;16092
290;16094
289;16096
288;16098
287;16100
287;16102
286;16104
285;16106
285;16108
284;16110
282;16112
282;16114
281;16116
280;16118
281;16120
280;16122
280;16124
280;16126
280;16128
279;16130
279;16132
278;16134
278;16136
278;16138
278;16140
278;16142
279;16144
279;16146
279;16148
278;16150
278;16152
278;16154
278;16156
278;16158
279;16160
279;16162
280;16164
280;16166
280;16168
280;16171
280;16173
279;16175
280;16177
280;16179
281;16181
282;16183
282;16185
282;16187
283;16189
282;16191
282;16193
283;16195
283;16197
284;16199
285;16201
285;16203
286;16205
286;16207
286;16209
287;16211
286;16214
287;16216
287;16218
288;16220
289;16222
290;16224
290;16226
291;16228
291;16230
291;16232
292;16234
292;16236
292;16238
294;16240
295;16242
296;16244
296;16246
297;16248
297;16250
298;16252
298;16254
299;16256
300;16258
301;16260
302;16262
303;16264
304;16266
305;16268
305;16270
306;16272
306;16274
307;16276
308;16278
309;16280
310;16282
311;16284
312;16286
312;16288
312;16290
313;16292
313;16294
314;16296
314;16299
315;16301
316;16303
316;16305
316;16307
316;16309
316;16311
316;16313
315;16315
315;16317
315;16319
315;16321
315;16323
314;16325
313;16327
313;16329
312;16331
310;16333
309;16335
308;16337
308;16339
307;16342
306;16344
305;16346
305;16348
303;16350
302;16352
300;16354
299;16356
299;16358
298;16360
297;16362
297;16364
296;16366
295;16368
294;16370
292;16372
291;16374
291;16376
290;16378
290;16380
289;16382
289;16384
288;16386
288;16388
287;16390
286;16392
286;16394
285;16396
285;16398
285;16400
284;16402
285;16404
284;16406
284;16408
284;16410
283;16412
283;16414
283;16416
282;16418
282;16420
283;16422
283;16424
283;16427
283;16429
282;16431
282;16433
282;16435
282;16437
282;16439
283;16441
283;16443
284;16445
283;16447
283;16449
283;16451
283;16453
283;16455
283;16457
284;16459
284;16461
284;16463
285;16465
285;16467
285;16470
285;16472
285;16474
284;16476
285;16478
286;16480
286;16482
287;16484
287;16486
287;16488
287;16490
287;16492
287;16494
287;16496
287;16498
288;16500
288;16502
288;16504
289;16506
289;16508
289;16510
288;16512
289;16514
288;16516
288;16518
289;16520
289;16522
290;16524
290;16526
290;16528
290;16530
290;16532
289;16534
289;16536
289;16538
290;16540
290;16542
291;16544
290;16546
290;16548
290;16550
289;16552
290;16555
289;16557
290;16559
290;16561
290;16563
291;16565
291;16567
291;16569
290;16571
290;16573
290;16575
290;16577
290;16579
290;16581
291;16583
291;16585
291;16587
291;16589
291;16591
290;16593
290;16595
290;16598
291;16600
291;16602
291;16604
292;16606
292;16608
291;16610
291;16612
291;16614
291;16616
291;16618
291;16620
291;16622
292;16624
292;16626
292;16628
292;16630
292;16632
292;16634
291;16636
292;16638
292;16640
292;16642
293;16644
293;16646
293;16648
293;16650
293;16652
292;16654
292;16656
292;16658
292;16660
293;16662
293;16664
294;16666
293;16668
293;16670
293;16672
293;16674
293;16676
293;16678
293;16680
294;16683
294;16685
294;16687
294;16689
294;16691
294;16693
294;16695
293;16697
294;16699
294;16701
295;16703
295;16705
295;16707
295;16709
295;16711
294;16713
294;16715
294;16717
294;16719
295;16721
295;16723
296;16726
296;16728
295;16730
295;16732
295;16734
295;16736
295;16738
295;16740
295;16742
296;16744
296;16746
296;16748
296;16750
296;16752
295;16754
295;16756
295;16758
296;16760
296;16762
296;16764
296;16766
297;16768
296;16770
296;16772
296;16774
295;16776
295;16778
296;16780
296;16782
297;16784
297;16786
297;16788
297;16790
296;16792
296;16794
296;16796
296;16798
296;16800
297;16802
297;16804
297;16806
297;16808
297;16811
296;16813
296;16815
296;16817
296;16819
296;16821
297;16823
297;16825
297;16827
297;16829
297;16831
296;16833
296;16835
296;16837
296;16839
297;16841
297;16843
298;16845
297;16847
298;16849
297;16851
297;16854
297;16856
297;16858
297;16860
297;16862
298;16864
298;16866
298;16868
298;16870
298;16872
297;16874
297;16876
297;16878
297;16880
298;16882
298;16884
298;16886
298;16888
298;16890
298;16892
297;16894
297;16896
297;16898
298;16900
298;16902
298;16904
299;16906
298;16908
298;16910
298;16912
298;16914
298;16916
298;16918
299;16920
300;16922
300;16924
300;16926
300;16928
300;16930
300;16932
300;16934
301;16936
301;16939
302;16941
302;16943
303;16945
303;16947
303;16949
303;16951
303;16953
303;16955
302;16957
303;16959
303;16961
303;16963
304;16965
303;16967
303;16969
303;16971
302;16973
302;16975
301;16977
301;16979
302;16982
302;16984
301;16986
301;16988
301;16990
300;16992
299;16994
299;16996
299;16998
299;17000
299;17002
299;17004
299;17006
298;17008
297;17010
296;17012
295;17014
294;17016
293;17018
294;17020
294;17022
295;17024
296;17026
298;17028
301;17030
305;17032
310;17034
316;17036
322;17038
330;17040
337;17042
346;17044
354;17046
362;17048
369;17050
374;17052
377;17054
378;17056
376;17058
374;17060
371;17062
367;17064
363;17067
358;17069
352;17071
346;17073
341;17075
336;17077
332;17079
329;17081
326;17083
323;17085
320;17087
318;17089
315;17091
313;17093
310;17095
308;17097
306;17099
304;17101
303;17103
301;17105
300;17107
299;17110
296;17112
295;17114
293;17116
292;17118
291;17120
290;17122
290;17124
289;17126
288;17128
287;17130
286;17132
285;17134
284;17136
283;17138
284;17140
283;17142
283;17144
283;17146
282;17148
282;17150
281;17152
281;17154
280;17156
280;17158
280;17160
280;17162
280;17164
280;17166
280;17168
280;17170
280;17172
279;17174
279;17176
279;17178
279;17180
280;17182
280;17184
281;17186
281;17188
281;17190
280;17192
281;17195
280;17197
281;17199
281;17201
282;17203
283;17205
283;17207
283;17209
283;17211
283;17213
283;17215
283;17217
284;17219
284;17221
285;17223
286;17225
286;17227
286;17229
287;17231
287;17233
287;17235
287;17238
288;17240
289;17242
290;17244
291;17246
291;17248
291;17250
292;17252
292;17254
292;17256
293;17258
293;17260
295;17262
296;17264
296;17266
297;17268
297;17270
298;17272
298;17274
298;17276
299;17278
300;17280
301;17282
302;17284
303;17286
304;17288
304;17290
305;17292
305;17294
306;17296
307;17298
308;17300
309;17302
310;17304
311;17306
312;17308
312;17310
312;17312
313;17314
313;17316
313;17318
314;17320
315;17323
316;17325
317;17327
317;17329
317;17331
317;17333
316;17335
317;17337
316;17339
316;17341
317;17343
317;17345
317;17347
316;17349
315;17351
314;17353
313;17355
312;17357
312;17359
311;17361
311;17363
310;17366
309;17368
308;17370
307;17372
306;17374
304;17376
303;17378
303;17380
302;17382
301;17384
300;17386
299;17388
298;17390
297;17392
296;17394
295;17396
294;17398
293;17400
293;17402
292;17404
292;17406
292;17408
291;17410
290;17412
289;17414
288;17416
287;17418
287;17420
287;17422
287;17424
287;17426
286;17428
286;17430
285;17432
285;17434
284;17436
284;17438
284;17440
284;17442
284;17444
285;17446
284;17448
284;17451
284;17453
283;17455
283;17457
283;17459
283;17461
284;17463
284;17465
284;17467
285;17469
284;17471
284;17473
284;17475
284;17477
284;17479
284;17481
285;17483
285;17485
286;17487
286;17489
285;17491
285;17494
285;17496
285;17498
286;17500
286;17502
286;17504
287;17506
287;17508
287;17510
287;17512
287;17514
287;17516
287;17518
287;17520
288;17522
288;17524
288;17526
289;17528
289;17530
288;17532
288;17534
288;17536
288;17538
288;17540
289;17542
289;17544
290;17546
290;17548
290;17550
289;17552
289;17554
289;17556
289;17558
289;17560
289;17562
290;17564
290;17566
290;17568
290;17570
290;17572
289;17574
289;17576
289;17579
289;17581
290;17583
290;17585
290;17587
290;17589
290;17591
290;17593
290;17595
289;17597
289;17599
290;17601
290;17603
290;17605
291;17607
290;17609
290;17611
290;17613
290;17615
290;17617
290;17619
290;17622
291;17624
291;17626
291;17628
291;17630
291;17632
291;17634
290;17636
291;17638
290;17640
291;17642
291;17644
292;17646
292;17648
292;17650
291;17652
291;17654
291;17656
291;17658
291;17660
292;17662
292;17664
292;17666
293;17668
293;17670
293;17672
292;17674
292;17676
292;17678
292;17680
293;17682
293;17684
293;17686
293;17688
293;17690
293;17692
293;17694
292;17696
292;17698
293;17700
293;17702
293;17704
294;17707
294;17709
294;17711
293;17713
293;17715
293;17717
293;17719
293;17721
294;17723
294;17725
295;17727
295;17729
295;17731
294;17733
294;17735
294;17737
294;17739
294;17741
295;17743
295;17745
295;17747
295;17750
295;17752
295;17754
294;17756
294;17758
295;17760
295;17762
295;17764
296;17766
296;17768
296;17770
295;17772
295;17774
295;17776
295;17778
295;17780
295;17782
296;17784
296;17786
296;17788
296;17790
296;17792
296;17794
295;17796
295;17798
295;17800
296;17802
296;17804
296;17806
296;17808
296;17810
296;17812
296;17814
296;17816
295;17818
295;17820
296;17822
296;17824
297;17826
297;17828
297;17830
297;17832
296;17835
296;17837
296;17839
296;17841
296;17843
297;17845
297;17847
297;17849
297;17851
297;17853
296;17855
296;17857
296;17859
296;17861
297;17863
297;17865
297;17867
297;17869
297;17871
297;17873
297;17875
296;17878
297;17880
297;17882
297;17884
298;17886
298;17888
298;17890
298;17892
297;17894
297;17896
297;17898
297;17900
298;17902
298;17904
298;17906
298;17908
298;17910
298;17912
298;17914
297;17916
297;17918
297;17920
297;17922
298;17924
298;17926
298;17928
298;17930
298;17932
298;17934
298;17936
297;17938
298;17940
298;17942
298;17944
299;17946
299;17948
298;17950
298;17952
298;17954
298;17956
297;17958
298;17960
298;17963
299;17965
299;17967
299;17969
299;17971
299;17973
299;17975
299;17977
299;17979
299;17981
300;17983
301;17985
301;17987
302;17989
302;17991
302;17993
302;17995
302;17997
302;17999
303;18001
303;18003
303;18006
304;18008
303;18010
303;18012
303;18014
302;18016
302;18018
302;18020
302;18022
302;18024
302;18026
303;18028
302;18030
302;18032
301;18034
300;18036
300;18038
300;18040
300;18042
300;18044
300;18046
300;18048
300;18050
299;18052
298;18054
298;18056
297;18058
297;18060
296;18062
295;18064
295;18066
295;18068
294;18070
294;18072
294;18074
296;18076
299;18078
303;18080
308;18082
314;18084
320;18086
328;18088
334;18091
342;18093
350;18095
358;18097
365;18099
371;18101
376;18103
378;18105
378;18107
376;18109
372;18111
369;18113
364;18115
358;18117
353;18119
347;18121
342;18123
338;18125
333;18127
330;18129
326;18131
322;18134
320;18136
317;18138
314;18140
312;18142
311;18144
309;18146
307;18148
305;18150
303;18152
301;18154
299;18156
298;18158
297;18160
295;18162
294;18164
294;18166
292;18168
291;18170
290;18172
288;18174
288;18176
287;18178
286;18180
286;18182
285;18184
285;18186
285;18188
284;18190
283;18192
282;18194
282;18196
281;18198
281;18200
281;18202
281;18204
281;18206
281;18208
281;18210
281;18212
280;18214
280;18216
280;18219
280;18221
280;18223
280;18225
281;18227
281;18229
281;18231
281;18233
280;18235
280;18237
281;18239
281;18241
281;18243
282;18245
282;18247
283;18249
283;18251
283;18253
283;18255
283;18257
283;18259
284;18262
284;18264
285;18266
286;18268
286;18270
286;18272
287;18274
286;18276
286;18278
287;18280
287;18282
289;18284
289;18286
290;18288
290;18290
290;18292
291;18294
291;18296
291;18298
292;18300
293;18302
293;18304
294;18306
295;18308
295;18310
296;18312
296;18314
296;18316
297;18318
297;18320
298;18322
300;18324
300;18326
302;18328
302;18330
303;18332
303;18334
304;18336
304;18338
305;18340
306;18342
308;18344
309;18347
310;18349
310;18351
311;18353
311;18355
312;18357
313;18359
313;18361
314;18363
315;18365
316;18367
317;18369
317;18371
317;18373
317;18375
318;18377
318;18379
318;18381
319;18383
319;18385
319;18387
319;18390
319;18392
318;18394
317;18396
317;18398
316;18400
316;18402
315;18404
315;18406
314;18408
313;18410
312;18412
311;18414
310;18416
308;18418
307;18420
307;18422
306;18424
305;18426
304;18428
303;18430
302;18432
301;18434
299;18436
298;18438
297;18440
296;18442
296;18444
295;18446
294;18448
293;18450
292;18452
291;18454
290;18456
289;18458
288;18460
288;18462
288;18464
288;18466
287;18468
286;18470
286;18472
285;18475
284;18477
284;18479
284;18481
283;18483
283;18485
283;18487
283;18489
283;18491
282;18493
282;18495
281;18497
281;18499
282;18501
282;18503
282;18505
282;18507
282;18509
282;18511
282;18513
281;18515
281;18518
281;18520
281;18522
282;18524
282;18526
283;18528
284;18530
283;18532
283;18534
283;18536
283;18538
283;18540
283;18542
284;18544
285;18546
285;18548
285;18550
285;18552
285;18554
285;18556
285;18558
285;18560
285;18562
286;18564
286;18566
287;18568
287;18570
287;18572
287;18574
287;18576
287;18578
287;18580
287;18582
288;18584
288;18586
288;18588
289;18590
288;18592
288;18594
288;18596
288;18598
288;18600
288;18603
289;18605
289;18607
289;18609
289;18611
289;18613
289;18615
289;18617
289;18619
289;18621
289;18623
289;18625
290;18627
289;18629
289;18631
290;18633
289;18635
289;18637
289;18639
289;18641
289;18643
289;18646
290;18648
290;18650
290;18652
289;18654
289;18656
289;18658
289;18660
289;18662
290;18664
290;18666
290;18668
290;18670
290;18672
290;18674
290;18676
289;18678
290;18680
290;18682
290;18684
291;18686
291;18688
291;18690
291;18692
291;18694
290;18696
290;18698
290;18700
290;18702
291;18704
291;18706
292;18708
292;18710
291;18712
291;18714
291;18716
290;18718
291;18720
291;18722
291;18724
292;18726
292;18728
293;18731
293;18733
292;18735
292;18737
292;18739
292;18741
292;18743
293;18745
293;18747
293;18749
293;18751
293;18753
293;18755
292;18757
292;18759
292;18761
292;18763
293;18765
293;18767
293;18769
294;18771
293;18774
293;18776
293;18778
293;18780
293;18782
293;18784
293;18786
294;18788
294;18790
294;18792
294;18794
293;18796
293;18798
293;18800
294;18802
294;18804
294;18806
294;18808
295;18810
294;18812
294;18814
294;18816
294;18818
293;18820
294;18822
294;18824
295;18826
295;18828
295;18830
295;18832
295;18834
294;18836
294;18838
294;18840
294;18842
295;18844
295;18846
296;18848
296;18850
296;18852
295;18854
295;18856
295;18859
295;18861
295;18863
295;18865
296;18867
296;18869
296;18871
296;18873
296;18875
296;18877
295;18879
296;18881
296;18883
296;18885
296;18887
297;18889
297;18891
296;18893
296;18895
296;18897
296;18899
296;18902
296;18904
297;18906
297;18908
297;18910
297;18912
297;18914
296;18916
296;18918
296;18920
296;18922
297;18924
297;18926
297;18928
298;18930
298;18932
297;18934
297;18936
297;18938
296;18940
297;18942
297;18944
297;18946
298;18948
298;18950
298;18952
298;18954
297;18956
297;18958
297;18960
297;18962
297;18964
298;18966
298;18968
298;18970
298;18972
298;18974
297;18976
297;18978
297;18980
297;18982
297;18984
298;18987
298;18989
298;18991
298;18993
298;18995
298;18997
298;18999
298;19001
298;19003
299;19005
300;19007
300;19009
300;19011
300;19013
300;19015
300;19017
301;19019
301;19021
302;19023
303;19025
303;19027
303;19030
303;19032
303;19034
303;19036
302;19038
303;19040
303;19042
303;19044
303;19046
303;19048
303;19050
303;19052
302;19054
302;19056
301;19058
301;19060
301;19062
301;19064
301;19066
301;19068
300;19070
301;19072
300;19074
300;19076
299;19078
299;19080
299;19082
299;19084
298;19086
298;19088
297;19090
296;19092
295;19094
294;19096
294;19098
294;19100
295;19102
296;19104
299;19106
303;19108
307;19110
312;19112
318;19115
324;19117
331;19119
339;19121
347;19123
355;19125
363;19127
370;19129
375;19131
377;19133
377;19135
375;19137
372;19139
369;19141
365;19143
361;19145
356;19147
351;19149
345;19151
340;19153
335;19155
330;19158
326;19160
323;19162
321;19164
318;19166
317;19168
315;19170
312;19172
310;19174
308;19176
305;19178
304;19180
302;19182
301;19184
300;19186
298;19188
297;19190
296;19192
294;19194
293;19196
291;19198
291;19200
290;19202
289;19204
289;19206
288;19208
287;19210
287;19212
286;19214
285;19216
284;19218
284;19220
283;19222
283;19224
283;19226
283;19228
283;19230
283;19232
282;19234
281;19236
281;19238
281;19240
281;19243
281;19245
281;19247
282;19249
282;19251
282;19253
281;19255
281;19257
281;19259
281;19261
282;19263
282;19265
282;19267
283;19269
283;19271
283;19273
283;19275
283;19277
283;19279
283;19281
284;19283
285;19286
285;19288
286;19290
286;19292
286;19294
286;19296
286;19298
286;19300
287;19302
288;19304
288;19306
289;19308
290;19310
290;19312
290;19314
290;19316
290;19318
291;19320
291;19322
292;19324
293;19326
293;19328
294;19330
295;19332
295;19334
295;19336
296;19338
296;19340
297;19342
297;19344
299;19346
300;19348
301;19350
301;19352
302;19354
302;19356
303;19358
303;19360
304;19362
305;19364
306;19366
308;19368
308;19371
309;19373
310;19375
310;19377
311;19379
312;19381
312;19383
314;19385
315;19387
316;19389
317;19391
317;19393
317;19395
317;19397
317;19399
318;19401
319;19403
319;19405
320;19407
320;19409
321;19411
320;19414
320;19416
320;19418
320;19420
320;19422
319;19424
319;19426
319;19428
319;19430
318;19432
317;19434
316;19436
315;19438
314;19440
313;19442
312;19444
311;19446
311;19448
310;19450
309;19452
307;19454
306;19456
305;19458
304;19460
303;19462
302;19464
301;19466
300;19468
299;19470
299;19472
297;19474
296;19476
295;19478
294;19480
293;19482
292;19484
292;19486
291;19488
291;19490
290;19492
289;19494
288;19496
287;19499
286;19501
286;19503
286;19505
286;19507
286;19509
285;19511
285;19513
285;19515
284;19517
283;19519
283;19521
283;19523
284;19525
284;19527
284;19529
284;19531
283;19533
283;19535
283;19537
282;19539
283;19542
283;19544
283;19546
283;19548
284;19550
284;19552
284;19554
283;19556
283;19558
283;19560
283;19562
284;19564
284;19566
285;19568
285;19570
285;19572
285;19574
285;19576
285;19578
285;19580
285;19582
286;19584
286;19586
287;19588
287;19590
287;19592
287;19594
287;19596
287;19598
287;19600
287;19602
287;19604
288;19606
288;19608
288;19610
289;19612
288;19614
288;19616
288;19618
288;19620
288;19622
288;19624
289;19627
289;19629
289;19631
289;19633
289;19635
289;19637
288;19639
288;19641
289;19643
289;19645
290;19647
290;19649
290;19651
290;19653
290;19655
289;19657
289;19659
289;19661
289;19663
290;19665
290;19667
290;19670
290;19672
290;19674
290;19676
289;19678
289;19680
289;19682
290;19684
290;19686
290;19688
291;19690
291;19692
290;19694
290;19696
290;19698
290;19700
290;19702
290;19704
291;19706
291;19708
291;19710
291;19712
291;19714
291;19716
291;19718
290;19720
291;19722
291;19724
291;19726
292;19728
292;19730
292;19732
292;19734
291;19736
291;19738
291;19740
292;19742
293;19744
292;19746
293;19748
293;19750
293;19752
293;19755
292;19757
292;19759
292;19761
292;19763
293;19765
293;19767
294;19769
293;19771
293;19773
294;19775
293;19777
293;19779
293;19781
293;19783
294;19785
294;19787
294;19789
295;19791
294;19793
294;19795
294;19798
294;19800
294;19802
294;19804
295;19806
295;19808
295;19810
295;19812
295;19814
294;19816
295;19818
294;19820
294;19822
295;19824
295;19826
296;19828
296;19830
296;19832
296;19834
295;19836
295;19838
295;19840
295;19842
295;19844
295;19846
296;19848
297;19850
296;19852
296;19854
296;19856
295;19858
296;19860
295;19862
296;19864
296;19866
296;19868
296;19870
297;19872
296;19874
296;19876
295;19878
295;19880
295;19883
296;19885
296;19887
296;19889
297;19891
297;19893
296;19895
296;19897
296;19899
296;19901
296;19903
296;19905
297;19907
296;19909
297;19911
297;19913
297;19915
297;19917
296;19919
296;19921
297;19923
297;19926
298;19928
298;19930
298;19932
299;19934
299;19936
299;19938
299;19940
299;19942
300;19944
301;19946
301;19948
302;19950
302;19952
302;19954
302;19956
302;19958
302;19960
301;19962
302;19964
302;19966
302;19968
302;19970
302;19972
302;19974
302;19976
300;19978
300;19980
300;19982
300;19984
300;19986
300;19988
300;19990
299;19992
299;19994
298;19996
298;19998
298;20000
297;20002
297;20004
297;20006
297;20008
297;20011
296;20013
295;20015
294;20017
293;20019
293;20021
293;20023
294;20025
295;20027
297;20029
301;20031
304;20033
309;20035
314;20037
320;20039
328;20041
334;20043
343;20045
351;20047
359;20049
366;20051
371;20054
374;20056
375;20058
374;20060
371;20062
369;20064
366;20066
362;20068
358;20070
353;20072
347;20074
341;20076
336;20078
331;20080
327;20082
323;20084
321;20086
318;20088
316;20090
313;20092
311;20094
310;20096
307;20098
305;20100
303;20102
302;20104
300;20106
299;20108
298;20110
296;20112
295;20114
293;20116
292;20118
291;20120
289;20122
289;20124
288;20126
288;20128
287;20130
286;20132
285;20134
285;20136
284;20139
283;20141
282;20143
282;20145
282;20147
282;20149
282;20151
282;20153
281;20155
281;20157
280;20159
280;20161
280;20163
280;20165
281;20167
281;20169
281;20171
281;20173
280;20175
280;20177
280;20179
280;20182
281;20184
281;20186
282;20188
282;20190
282;20192
282;20194
282;20196
282;20198
282;20200
282;20202
283;20204
283;20206
284;20208
284;20210
284;20212
285;20214
285;20216
285;20218
285;20220
285;20222
285;20224
286;20226
287;20228
287;20230
288;20232
288;20234
288;20236
288;20238
289;20240
289;20242
290;20244
290;20246
291;20248
292;20250
292;20252
293;20254
293;20256
293;20258
294;20260
294;20262
295;20264
296;20267
297;20269
298;20271
298;20273
299;20275
299;20277
300;20279
300;20281
301;20283
302;20285
303;20287
304;20289
304;20291
306;20293
306;20295
306;20297
307;20299
307;20301
308;20303
309;20305
311;20307
312;20310
312;20312
313;20314
313;20316
313;20318
314;20320
314;20322
315;20324
315;20326
316;20328
317;20330
317;20332
317;20334
317;20336
316;20338
316;20340
316;20342
316;20344
316;20346
316;20348
316;20350
315;20352
314;20354
313;20356
312;20358
311;20360
311;20362
310;20364
309;20366
309;20368
308;20370
307;20372
306;20374
304;20376
303;20378
301;20380
300;20382
299;20384
299;20386
298;20388
297;20390
296;20392
295;20395
294;20397
293;20399
292;20401
291;20403
290;20405
290;20407
289;20409
289;20411
289;20413
288;20415
287;20417
286;20419
285;20421
285;20423
285;20425
284;20427
285;20429
284;20431
284;20433
283;20435
282;20438
282;20440
281;20442
282;20444
282;20446
282;20448
282;20450
282;20452
282;20454
282;20456
281;20458
282;20460
281;20462
281;20464
282;20466
282;20468
282;20470
282;20472
282;20474
282;20476
282;20478
281;20480
282;20482
282;20484
282;20486
283;20488
283;20490
284;20492
284;20494
283;20496
283;20498
283;20500
283;20502
284;20504
284;20506
285;20508
285;20510
286;20512
285;20514
285;20516
285;20518
285;20520
285;20523
285;20525
286;20527
286;20529
286;20531
287;20533
287;20535
286;20537
287;20539
286;20541
286;20543
287;20545
287;20547
288;20549
288;20551
288;20553
288;20555
288;20557
287;20559
287;20561
287;20563
287;20566
288;20568
288;20570
288;20572
288;20574
288;20576
288;20578
288;20580
287;20582
288;20584
288;20586
288;20588
289;20590
289;20592
289;20594
288;20596
288;20598
288;20600
288;20602
288;20604
288;20606
288;20608
289;20610
289;20612
289;20614
289;20616
289;20618
289;20620
289;20622
289;20624
289;20626
290;20628
290;20630
291;20632
290;20634
290;20636
289;20638
290;20640
289;20642
290;20644
290;20646
291;20648
291;20651
291;20653
291;20655
290;20657
290;20659
290;20661
290;20663
290;20665
291;20667
291;20669
291;20671
292;20673
291;20675
291;20677
291;20679
291;20681
291;20683
291;20685
292;20687
292;20689
292;20691
292;20694
292;20696
292;20698
292;20700
292;20702
292;20704
292;20706
292;20708
293;20710
293;20712
293;20714
293;20716
292;20718
292;20720
292;20722
292;20724
293;20726
293;20728
293;20730
293;20732
294;20734
293;20736
293;20738
293;20740
293;20742
293;20744
293;20746
294;20748
294;20750
295;20752
295;20754
295;20756
295;20758
295;20760
295;20762
295;20764
295;20766
296;20768
297;20770
297;20772
297;20774
297;20776
297;20779
298;20781
298;20783
298;20785
299;20787
300;20789
300;20791
300;20793
300;20795
300;20797
299;20799
299;20801
299;20803
299;20805
300;20807
300;20809
300;20811
300;20813
299;20815
299;20817
298;20819
298;20822
297;20824
297;20826
297;20828
297;20830
298;20832
297;20834
297;20836
296;20838
296;20840
295;20842
295;20844
295;20846
295;20848
294;20850
293;20852
292;20854
292;20856
292;20858
292;20860
293;20862
294;20864
297;20866
302;20868
307;20870
313;20872
319;20874
325;20876
332;20878
340;20880
348;20882
355;20884
363;20886
369;20888
373;20890
375;20892
374;20894
372;20896
369;20898
365;20900
361;20902
357;20904
352;20907
347;20909
342;20911
337;20913
333;20915
328;20917
324;20919
320;20921
318;20923
315;20925
313;20927
311;20929
309;20931
307;20933
305;20935
303;20937
301;20939
299;20941
297;20943
296;20945
295;20947
294;20950
293;20952
291;20954
290;20956
289;20958
288;20960
287;20962
286;20964
285;20966
285;20968
285;20970
284;20972
284;20974
283;20976
282;20978
281;20980
280;20982
281;20984
280;20986
281;20988
281;20990
281;20992
281;20994
280;20996
280;20998
279;21000
279;21002
279;21004
280;21006
280;21008
280;21010
281;21012
281;21014
280;21016
280;21018
280;21020
280;21022
280;21024
281;21026
280;21028
281;21030
282;21032
282;21035
282;21037
282;21039
281;21041
282;21043
282;21045
283;21047
284;21049
284;21051
285;21053
285;21055
285;21057
285;21059
285;21061
285;21063
286;21065
287;21067
287;21069
288;21071
289;21073
289;21075
289;21078
289;21080
289;21082
290;21084
291;21086
291;21088
292;21090
293;21092
293;21094
294;21096
294;21098
294;21100
295;21102
295;21104
296;21106
297;21108
298;21110
299;21112
300;21114
300;21116
301;21118
301;21120
302;21122
302;21124
304;21126
305;21128
306;21130
307;21132
308;21134
308;21136
308;21138
309;21140
309;21142
310;21144
311;21146
312;21148
313;21150
314;21152
314;21154
315;21156
315;21158
315;21160
315;21163
315;21165
316;21167
316;21169
317;21171
317;21173
317;21175
316;21177
315;21179
315;21181
314;21183
313;21185
314;21187
313;21189
313;21191
312;21193
311;21195
310;21197
308;21199
307;21201
306;21203
305;21206
304;21208
304;21210
303;21212
302;21214
300;21216
300;21218
298;21220
297;21222
296;21224
295;21226
295;21228
294;21230
293;21232
293;21234
291;21236
290;21238
289;21240
288;21242
288;21244
287;21246
287;21248
287;21250
287;21252
286;21254
286;21256
285;21258
284;21260
284;21262
283;21264
283;21266
283;21268
283;21270
283;21272
283;21274
282;21276
282;21278
281;21280
281;21282
281;21284
281;21286
282;21288
282;21291
282;21293
282;21295
282;21297
282;21299
281;21301
281;21303
282;21305
282;21307
283;21309
283;21311
283;21313
283;21315
283;21317
283;21319
283;21321
283;21323
283;21325
284;21327
284;21329
284;21331
285;21334
285;21336
285;21338
284;21340
284;21342
285;21344
285;21346
285;21348
286;21350
286;21352
287;21354
286;21356
286;21358
286;21360
286;21362
286;21364
287;21366
287;21368
288;21370
288;21372
288;21374
288;21376
288;21378
288;21380
287;21382
288;21384
287;21386
288;21388
289;21390
289;21392
289;21394
289;21396
289;21398
289;21400
288;21402
288;21404
288;21406
289;21408
290;21410
290;21412
290;21414
290;21416
289;21419
289;21421
289;21423
289;21425
289;21427
290;21429
291;21431
290;21433
291;21435
290;21437
290;21439
290;21441
290;21443
290;21445
290;21447
291;21449
291;21451
291;21453
291;21455
291;21457
291;21459
290;21462
290;21464
290;21466
291;21468
291;21470
291;21472
292;21474
292;21476
291;21478
291;21480
291;21482
290;21484
291;21486
291;21488
292;21490
292;21492
292;21494
292;21496
292;21498
292;21500
291;21502
291;21504
292;21506
292;21508
292;21510
293;21512
293;21514
293;21516
292;21518
292;21520
292;21522
292;21524
293;21526
293;21528
293;21530
293;21532
294;21534
293;21536
293;21538
293;21540
293;21542
293;21544
293;21547
293;21549
294;21551
294;21553
294;21555
294;21557
294;21559
294;21561
293;21563
293;21565
294;21567
294;21569
295;21571
295;21573
295;21575
295;21577
294;21579
294;21581
294;21583
294;21585
295;21587
295;21590
295;21592
296;21594
296;21596
295;21598
295;21600
295;21602
294;21604
295;21606
295;21608
295;21610
296;21612
296;21614
296;21616
296;21618
295;21620
295;21622
296;21624
296;21626
297;21628
298;21630
298;21632
298;21634
298;21636
299;21638
298;21640
298;21642
298;21644
300;21646
300;21648
301;21650
302;21652
302;21654
302;21656
302;21658
302;21660
301;21662
301;21664
301;21666
302;21668
302;21670
302;21672
302;21675
302;21677
301;21679
301;21681
300;21683
300;21685
300;21687
300;21689
300;21691
300;21693
299;21695
299;21697
298;21699
298;21701
298;21703
297;21705
297;21707
297;21709
297;21711
297;21713
295;21715
295;21718
293;21720
293;21722
292;21724
293;21726
294;21728
296;21730
298;21732
302;21734
307;21736
312;21738
318;21740
324;21742
332;21744
340;21746
348;21748
356;21750
364;21752
370;21754
375;21756
376;21758
376;21760
375;21762
373;21764
370;21766
366;21768
362;21770
358;21772
352;21774
347;21776
341;21778
336;21780
331;21782
327;21784
324;21786
321;21788
319;21790
317;21792
314;21794
312;21796
310;21798
307;21800
305;21803
303;21805
302;21807
300;21809
299;21811
298;21813
296;21815
294;21817
293;21819
291;21821
290;21823
289;21825
288;21827
288;21829
287;21831
287;21833
286;21835
285;21837
284;21839
283;21841
283;21843
282;21846
282;21848
282;21850
282;21852
282;21854
282;21856
281;21858
281;21860
280;21862
280;21864
280;21866
280;21868
281;21870
281;21872
281;21874
281;21876
280;21878
280;21880
280;21882
280;21884
280;21886
280;21888
281;21890
281;21892
281;21894
282;21896
281;21898
282;21900
281;21902
281;21904
282;21906
282;21908
283;21910
284;21912
284;21914
284;21916
284;21918
284;21920
284;21922
284;21924
285;21926
286;21928
287;21931
287;21933
288;21935
288;21937
288;21939
288;21941
288;21943
288;21945
290;21947
290;21949
291;21951
292;21953
292;21955
293;21957
293;21959
293;21961
294;21963
295;21965
295;21967
296;21969
297;21971
298;21974
299;21976
299;21978
299;21980
300;21982
301;21984
301;21986
303;21988
304;21990
305;21992
306;21994
307;21996
307;21998
307;22000
308;22002
309;22004
310;22006
310;22008
312;22010
313;22012
313;22014
314;22016
314;22018
314;22020
315;22022
315;22024
316;22026
317;22028
317;22030
318;22032
318;22034
318;22036
318;22038
317;22040
317;22042
317;22044
317;22046
317;22048
316;22050
316;22052
315;22054
314;22056
314;22059
312;22061
311;22063
310;22065
309;22067
309;22069
308;22071
307;22073
306;22075
305;22077
303;22079
302;22081
300;22083
299;22085
299;22087
298;22089
297;22091
296;22093
296;22095
294;22097
293;22099
292;22102
291;22104
291;22106
290;22108
289;22110
289;22112
288;22114
288;22116
287;22118
286;22120
286;22122
285;22124
285;22126
285;22128
284;22130
285;22132
285;22134
284;22136
283;22138
283;22140
282;22142
282;22144
282;22146
282;22148
283;22150
283;22152
283;22154
283;22156
283;22158
282;22160
282;22162
281;22164
282;22166
282;22168
283;22170
283;22172
283;22174
283;22176
283;22178
283;22180
283;22182
283;22184
283;22187
284;22189
284;22191
285;22193
285;22195
285;22197
285;22199
285;22201
285;22203
285;22205
285;22207
286;22209
286;22211
287;22213
287;22215
287;22217
287;22219
286;22221
287;22223
287;22225
287;22227
287;22230
288;22232
288;22234
288;22236
288;22238
288;22240
288;22242
288;22244
288;22246
288;22248
289;22250
289;22252
289;22254
289;22256
289;22258
289;22260
289;22262
289;22264
289;22266
289;22268
290;22270
290;22272
290;22274
291;22276
290;22278
290;22280
289;22282
289;22284
289;22286
290;22288
290;22290
290;22292
291;22294
291;22296
290;22298
290;22300
290;22302
290;22304
290;22306
290;22308
291;22310
291;22312
291;22315
291;22317
291;22319
291;22321
290;22323
290;22325
290;22327
291;22329
291;22331
291;22333
292;22335
291;22337
291;22339
291;22341
291;22343
291;22345
291;22347
291;22349
292;22351
292;22353
292;22355
292;22358
292;22360
291;22362
291;22364
291;22366
292;22368
292;22370
293;22372
293;22374
293;22376
293;22378
292;22380
292;22382
292;22384
292;22386
293;22388
293;22390
293;22392
293;22394
293;22396
293;22398
293;22400
293;22402
292;22404
292;22406
293;22408
293;22410
294;22412
294;22414
294;22416
294;22418
293;22420
293;22422
293;22424
293;22426
294;22428
294;22430
294;22432
294;22434
294;22436
294;22438
294;22440
294;22443
294;22445
294;22447
294;22449
294;22451
295;22453
295;22455
295;22457
295;22459
294;22461
294;22463
294;22465
294;22467
295;22469
295;22471
295;22473
296;22475
295;22477
295;22479
295;22481
294;22483
295;22486
295;22488
295;22490
296;22492
296;22494
296;22496
296;22498
295;22500
295;22502
295;22504
295;22506
295;22508
296;22510
296;22512
297;22514
296;22516
296;22518
296;22520
296;22522
296;22524
296;22526
296;22528
296;22530
297;22532
297;22534
297;22536
297;22538
296;22540
296;22542
296;22544
296;22546
296;22548
297;22550
297;22552
297;22554
297;22556
297;22558
297;22560
296;22562
296;22564
296;22566
296;22568
297;22571
298;22573
298;22575
298;22577
297;22579
297;22581
297;22583
297;22585
297;22587
297;22589
298;22591
298;22593
298;22595
298;22597
297;22599
297;22601
297;22603
297;22605
297;22607
297;22609
298;22611
298;22614
298;22616
298;22618
298;22620
297;22622
297;22624
297;22626
297;22628
298;22630
298;22632
298;22634
298;22636
298;22638
298;22640
298;22642
297;22644
298;22646
298;22648
299;22650
300;22652
300;22654
300;22656
300;22658
300;22660
300;22662
299;22664
300;22666
301;22668
301;22670
302;22672
303;22674
303;22676
303;22678
303;22680
303;22682
303;22684
303;22686
303;22688
303;22690
304;22692
304;22694
304;22696
303;22699
303;22701
302;22703
302;22705
302;22707
302;22709
302;22711
302;22713
302;22715
302;22717
301;22719
300;22721
300;22723
300;22725
299;22727
299;22729
299;22731
300;22733
299;22735
298;22737
298;22739
296;22742
295;22744
295;22746
294;22748
294;22750
295;22752
296;22754
297;22756
299;22758
302;22760
306;22762
312;22764
318;22766
324;22768
332;22770
340;22772
349;22774
357;22776
364;22778
371;22780
375;22782
376;22784
378;22786
377;22788
375;22790
373;22792
369;22794
364;22796
359;22798
353;22800
347;22802
342;22804
337;22806
333;22808
330;22810
327;22812
324;22814
321;22816
318;22818
316;22820
313;22822
310;22824
309;22827
307;22829
305;22831
304;22833
302;22835
301;22837
299;22839
297;22841
295;22843
294;22845
293;22847
292;22849
291;22851
290;22853
289;22855
289;22857
287;22859
286;22861
285;22863
284;22865
284;22867
283;22870
283;22872
283;22874
283;22876
282;22878
281;22880
281;22882
280;22884
280;22886
280;22888
280;22890
280;22892
280;22894
280;22896
280;22898
279;22900
280;22902
279;22904
279;22906
280;22908
280;22910
280;22912
281;22914
281;22916
281;22918
281;22920
280;22922
281;22924
280;22926
281;22928
281;22930
282;22932
283;22934
283;22936
283;22938
283;22940
283;22942
283;22944
283;22946
284;22948
285;22950
286;22952
286;22955
286;22957
287;22959
287;22961
287;22963
287;22965
288;22967
288;22969
289;22971
290;22973
291;22975
291;22977
291;22979
291;22981
291;22983
292;22985
293;22987
294;22989
295;22991
295;22993
296;22995
297;22998
297;23000
297;23002
298;23004
298;23006
299;23008
300;23010
301;23012
303;23014
303;23016
304;23018
304;23020
305;23022
305;23024
306;23026
307;23028
308;23030
309;23032
310;23034
311;23036
311;23038
312;23040
312;23042
312;23044
313;23046
314;23048
315;23050
315;23052
316;23054
316;23056
317;23058
317;23060
317;23062
317;23064
317;23066
317;23068
318;23070
318;23072
318;23074
317;23076
316;23078
316;23080
315;23083
314;23085
313;23087
312;23089
312;23091
312;23093
311;23095
310;23097
308;23099
307;23101
306;23103
304;23105
304;23107
303;23109
302;23111
301;23113
300;23115
299;23117
298;23119
296;23121
295;23123
294;23126
293;23128
293;23130
292;23132
292;23134
291;23136
290;23138
289;23140
288;23142
287;23144
287;23146
287;23148
286;23150
286;23152
286;23154
285;23156
285;23158
284;23160
283;23162
283;23164
282;23166
282;23168
283;23170
283;23172
