M&⸮SH⸮294;2
294;4
294;6
294;8
295;10
294;12
294;14
295;16
295;18
295;20
295;22
295;24
295;26
295;28
295;30
295;32
295;34
295;36
295;38
295;40
295;43
295;45
295;47
295;49
295;51
295;53
295;55
295;57
295;59
296;61
296;63
295;65
296;67
296;69
296;71
296;73
296;75
296;77
296;79
296;81
296;83
296;86
297;88
297;90
297;92
297;94
297;96
297;98
297;100
297;102
297;104
297;106
297;108
297;110
297;112
297;114
297;116
297;118
297;120
297;122
297;124
298;126
297;128
297;130
297;132
297;134
297;136
297;138
298;140
298;142
298;144
298;146
297;148
298;150
298;152
298;154
298;156
298;158
298;160
298;162
298;164
298;166
298;168
298;171
298;173
298;175
298;177
298;179
298;181
298;183
298;185
298;187
298;189
298;191
298;193
298;195
298;197
298;199
298;201
298;203
299;205
299;207
299;209
299;211
300;214
300;216
300;218
301;220
301;222
301;224
301;226
302;228
302;230
303;232
303;234
304;236
304;238
304;240
304;242
304;244
305;246
305;248
304;250
305;252
304;254
304;256
304;258
304;260
304;262
304;264
304;266
303;268
303;270
303;272
302;274
302;276
302;278
301;280
301;282
301;284
300;286
300;288
300;290
300;292
299;294
299;296
298;299
299;301
298;303
298;305
298;307
297;309
297;311
297;313
297;315
297;317
297;319
297;321
296;323
296;325
296;327
296;329
296;331
295;333
295;335
293;337
292;339
291;342
290;344
289;346
289;348
288;350
289;352
289;354
292;356
295;358
299;360
304;362
310;364
317;366
324;368
332;370
340;372
347;374
354;376
359;378
364;380
366;382
367;384
367;386
366;388
365;390
363;392
360;394
357;396
354;398
351;400
348;402
346;404
343;406
340;408
337;410
335;412
332;414
329;416
327;418
325;420
322;422
320;424
317;427
315;429
313;431
311;433
309;435
308;437
306;439
304;441
302;443
301;445
299;447
298;449
297;451
295;453
294;455
293;457
292;459
291;461
290;463
289;465
288;467
288;470
287;472
286;474
285;476
285;478
284;480
284;482
283;484
283;486
282;488
282;490
282;492
282;494
281;496
281;498
281;500
281;502
281;504
281;506
281;508
281;510
281;512
281;514
281;516
281;518
281;520
281;522
281;524
282;526
282;528
282;530
282;532
282;534
282;536
283;538
283;540
283;542
284;544
284;546
284;548
285;550
285;552
285;555
286;557
286;559
286;561
286;563
287;565
287;567
288;569
288;571
288;573
289;575
290;577
290;579
291;581
292;583
292;585
293;587
294;589
294;591
295;593
296;595
297;598
297;600
298;602
299;604
300;606
300;608
302;610
302;612
303;614
304;616
305;618
306;620
306;622
308;624
308;626
309;628
310;630
311;632
311;634
312;636
313;638
313;640
314;642
314;644
315;646
315;648
315;650
315;652
315;654
315;656
315;658
315;660
315;662
314;664
314;666
313;668
313;670
312;672
311;674
311;676
310;678
309;680
308;683
307;685
306;687
305;689
304;691
303;693
302;695
300;697
300;699
298;701
297;703
297;705
296;707
295;709
294;711
293;713
292;715
292;717
291;719
290;721
290;723
289;726
289;728
288;730
287;732
287;734
287;736
286;738
286;740
285;742
285;744
285;746
284;748
284;750
284;752
284;754
283;756
283;758
283;760
283;762
283;764
282;766
283;768
283;770
283;772
282;774
283;776
283;778
282;780
282;782
283;784
283;786
283;788
283;790
283;792
283;794
283;796
283;798
283;800
283;802
283;804
284;806
283;808
284;811
284;813
284;815
284;817
284;819
284;821
284;823
284;825
284;827
285;829
285;831
285;833
285;835
285;837
285;839
286;841
286;843
286;845
286;847
286;849
286;851
286;854
286;856
286;858
287;860
287;862
286;864
287;866
287;868
287;870
287;872
287;874
287;876
287;878
287;880
287;882
288;884
288;886
287;888
288;890
288;892
288;894
288;896
288;898
288;900
288;902
288;904
288;906
288;908
288;910
289;912
288;914
289;916
289;918
289;920
289;922
289;924
289;926
289;928
290;930
289;932
290;934
290;936
290;939
290;941
290;943
290;945
290;947
290;949
290;951
290;953
290;955
291;957
290;959
290;961
291;963
291;965
291;967
291;969
291;971
291;973
291;975
291;977
291;979
292;982
291;984
291;986
292;988
292;990
292;992
292;994
292;996
292;998
292;1000
292;1002
292;1004
292;1006
292;1008
292;1010
293;1012
293;1014
293;1016
293;1018
293;1020
293;1022
293;1024
293;1026
293;1028
293;1030
293;1032
293;1034
293;1036
294;1038
294;1040
294;1042
294;1044
294;1046
294;1048
294;1050
295;1052
294;1054
294;1056
294;1058
294;1060
295;1062
295;1064
294;1067
294;1069
295;1071
295;1073
295;1075
294;1077
295;1079
294;1081
295;1083
295;1085
295;1087
295;1089
295;1091
295;1093
295;1095
295;1097
295;1099
295;1101
295;1103
295;1105
295;1107
295;1110
295;1112
295;1114
295;1116
295;1118
295;1120
295;1122
295;1124
295;1126
296;1128
296;1130
296;1132
297;1134
297;1136
297;1138
297;1140
297;1142
298;1144
298;1146
298;1148
298;1150
299;1152
299;1154
300;1156
300;1158
301;1160
301;1162
302;1164
302;1166
302;1168
302;1170
302;1172
302;1174
302;1176
302;1178
302;1180
301;1182
301;1184
301;1186
301;1188
301;1190
301;1192
300;1195
300;1197
300;1199
299;1201
299;1203
299;1205
299;1207
298;1209
298;1211
297;1213
297;1215
297;1217
296;1219
296;1221
296;1223
296;1225
295;1227
296;1229
295;1231
295;1233
295;1235
294;1238
294;1240
294;1242
294;1244
294;1246
294;1248
294;1250
294;1252
294;1254
293;1256
292;1258
291;1260
290;1262
289;1264
288;1266
287;1268
286;1270
286;1272
286;1274
286;1276
288;1278
288;1280
292;1282
296;1284
301;1286
307;1288
314;1290
322;1292
330;1294
337;1296
345;1298
351;1300
356;1302
360;1304
361;1306
362;1308
361;1310
359;1312
357;1314
355;1316
351;1318
348;1320
345;1323
342;1325
339;1327
337;1329
334;1331
332;1333
329;1335
327;1337
324;1339
322;1341
320;1343
317;1345
315;1347
313;1349
312;1351
310;1353
308;1355
306;1357
304;1359
303;1361
301;1363
300;1366
299;1368
297;1370
296;1372
295;1374
293;1376
292;1378
291;1380
290;1382
289;1384
288;1386
288;1388
287;1390
286;1392
285;1394
285;1396
284;1398
284;1400
283;1402
283;1404
283;1406
282;1408
282;1410
282;1412
282;1414
281;1416
281;1418
281;1420
281;1422
281;1424
281;1426
281;1428
281;1430
281;1432
281;1434
281;1436
281;1438
281;1440
282;1442
282;1444
282;1446
282;1448
282;1451
282;1453
283;1455
283;1457
283;1459
284;1461
284;1463
284;1465
285;1467
285;1469
285;1471
286;1473
286;1475
286;1477
287;1479
287;1481
288;1483
288;1485
289;1487
289;1489
290;1491
290;1494
291;1496
292;1498
292;1500
293;1502
293;1504
294;1506
295;1508
295;1510
296;1512
297;1514
298;1516
298;1518
299;1520
300;1522
301;1524
302;1526
303;1528
304;1530
305;1532
305;1534
306;1536
307;1538
308;1540
309;1542
309;1544
310;1546
311;1548
312;1550
313;1552
314;1554
314;1556
315;1558
316;1560
316;1562
317;1564
318;1566
318;1568
318;1570
318;1572
318;1574
318;1576
318;1579
318;1581
318;1583
317;1585
317;1587
316;1589
315;1591
314;1593
313;1595
313;1597
312;1599
311;1601
309;1603
309;1605
307;1607
306;1609
305;1611
304;1613
303;1615
302;1617
300;1619
299;1622
298;1624
297;1626
296;1628
296;1630
294;1632
294;1634
293;1636
292;1638
291;1640
290;1642
290;1644
289;1646
288;1648
288;1650
287;1652
286;1654
286;1656
285;1658
285;1660
285;1662
284;1664
284;1666
284;1668
284;1670
283;1672
283;1674
283;1676
282;1678
282;1680
282;1682
282;1684
282;1686
282;1688
282;1690
282;1692
282;1694
282;1696
282;1698
282;1700
283;1702
282;1704
282;1707
283;1709
283;1711
283;1713
283;1715
283;1717
283;1719
283;1721
283;1723
283;1725
284;1727
284;1729
284;1731
285;1733
284;1735
285;1737
285;1739
285;1741
285;1743
285;1745
285;1747
286;1750
286;1752
286;1754
286;1756
286;1758
286;1760
286;1762
287;1764
287;1766
287;1768
287;1770
287;1772
287;1774
288;1776
288;1778
288;1780
288;1782
288;1784
288;1786
288;1788
289;1790
288;1792
289;1794
289;1796
288;1798
289;1800
289;1802
289;1804
289;1806
289;1808
289;1810
289;1812
289;1814
289;1816
289;1818
289;1820
289;1822
289;1824
290;1826
290;1828
290;1830
290;1832
290;1835
290;1837
290;1839
290;1841
291;1843
291;1845
291;1847
291;1849
291;1851
291;1853
291;1855
291;1857
291;1859
291;1861
291;1863
291;1865
291;1867
291;1869
291;1871
291;1873
291;1875
291;1878
291;1880
291;1882
292;1884
292;1886
292;1888
292;1890
292;1892
292;1894
292;1896
292;1898
292;1900
293;1902
293;1904
292;1906
293;1908
293;1910
293;1912
294;1914
294;1916
294;1918
294;1920
295;1922
295;1924
295;1926
295;1928
296;1930
296;1932
296;1934
297;1936
297;1938
298;1940
299;1942
299;1944
300;1946
300;1948
300;1950
300;1952
301;1954
301;1956
301;1958
301;1960
301;1963
301;1965
301;1967
301;1969
301;1971
301;1973
301;1975
301;1977
301;1979
301;1981
301;1983
301;1985
300;1987
300;1989
299;1991
299;1993
299;1995
299;1997
298;1999
298;2001
298;2003
297;2006
297;2008
297;2010
297;2012
297;2014
296;2016
296;2018
296;2020
296;2022
296;2024
296;2026
296;2028
295;2030
295;2032
295;2034
295;2036
295;2038
295;2040
295;2042
295;2044
294;2046
294;2048
294;2050
293;2052
292;2054
291;2056
290;2058
289;2060
289;2062
288;2064
289;2066
289;2068
290;2070
293;2072
296;2074
300;2076
306;2078
312;2080
319;2082
327;2084
334;2086
342;2088
349;2091
355;2093
360;2095
363;2097
365;2099
366;2101
365;2103
364;2105
362;2107
360;2109
356;2111
354;2113
351;2115
348;2117
345;2119
342;2121
340;2123
337;2125
334;2127
332;2129
329;2131
327;2134
325;2136
322;2138
320;2140
318;2142
316;2144
314;2146
312;2148
310;2150
308;2152
306;2154
305;2156
303;2158
302;2160
300;2162
299;2164
297;2166
296;2168
295;2170
294;2172
293;2174
292;2176
291;2178
290;2180
290;2182
289;2184
288;2186
288;2188
287;2190
286;2192
286;2194
285;2196
285;2198
284;2200
284;2202
284;2204
283;2206
283;2208
283;2210
283;2212
282;2214
282;2216
282;2219
282;2221
282;2223
282;2225
282;2227
282;2229
282;2231
282;2233
282;2235
282;2237
282;2239
283;2241
283;2243
283;2245
283;2247
284;2249
284;2251
284;2253
284;2255
285;2257
285;2259
285;2262
286;2264
286;2266
286;2268
287;2270
287;2272
287;2274
288;2276
288;2278
288;2280
289;2282
290;2284
290;2286
291;2288
291;2290
292;2292
292;2294
294;2296
294;2298
295;2300
295;2302
296;2304
296;2306
297;2308
298;2310
298;2312
299;2314
300;2316
301;2318
302;2320
303;2322
303;2324
304;2326
305;2328
306;2330
307;2332
308;2334
309;2336
309;2338
310;2340
311;2342
312;2344
312;2347
313;2349
314;2351
314;2353
315;2355
315;2357
316;2359
316;2361
316;2363
316;2365
316;2367
316;2369
316;2371
316;2373
315;2375
315;2377
314;2379
314;2381
313;2383
312;2385
311;2387
310;2390
309;2392
308;2394
307;2396
306;2398
305;2400
304;2402
303;2404
302;2406
301;2408
300;2410
299;2412
298;2414
297;2416
297;2418
296;2420
295;2422
294;2424
293;2426
293;2428
292;2430
292;2432
291;2434
290;2436
290;2438
289;2440
289;2442
289;2444
288;2446
288;2448
288;2450
287;2452
287;2454
287;2456
286;2458
286;2460
286;2462
285;2464
285;2466
285;2468
285;2470
285;2472
284;2475
284;2477
284;2479
285;2481
284;2483
285;2485
285;2487
285;2489
285;2491
285;2493
285;2495
284;2497
285;2499
285;2501
285;2503
285;2505
285;2507
285;2509
285;2511
285;2513
285;2515
285;2518
286;2520
286;2522
286;2524
286;2526
286;2528
286;2530
286;2532
286;2534
286;2536
287;2538
287;2540
287;2542
287;2544
287;2546
287;2548
288;2550
287;2552
288;2554
287;2556
288;2558
288;2560
288;2562
288;2564
289;2566
289;2568
289;2570
289;2572
289;2574
289;2576
289;2578
289;2580
289;2582
289;2584
290;2586
290;2588
290;2590
290;2592
289;2594
290;2596
290;2598
290;2600
290;2603
290;2605
290;2607
290;2609
290;2611
291;2613
290;2615
291;2617
291;2619
291;2621
291;2623
291;2625
291;2627
290;2629
291;2631
291;2633
291;2635
291;2637
291;2639
292;2641
292;2643
292;2646
292;2648
292;2650
292;2652
292;2654
292;2656
292;2658
292;2660
292;2662
292;2664
292;2666
292;2668
292;2670
292;2672
292;2674
292;2676
292;2678
292;2680
293;2682
293;2684
293;2686
293;2688
293;2690
293;2692
293;2694
293;2696
293;2698
293;2700
293;2702
293;2704
294;2706
294;2708
294;2710
294;2712
294;2714
294;2716
294;2718
294;2720
294;2722
294;2724
294;2726
295;2728
294;2731
294;2733
294;2735
295;2737
295;2739
295;2741
295;2743
295;2745
295;2747
295;2749
295;2751
295;2753
295;2755
295;2757
295;2759
295;2761
296;2763
296;2765
296;2767
296;2769
296;2771
296;2774
296;2776
296;2778
296;2780
296;2782
296;2784
296;2786
296;2788
296;2790
296;2792
296;2794
296;2796
296;2798
296;2800
296;2802
296;2804
296;2806
297;2808
297;2810
297;2812
297;2814
297;2816
297;2818
297;2820
297;2822
297;2824
298;2826
298;2828
298;2830
298;2832
298;2834
298;2836
298;2838
299;2840
299;2842
299;2844
300;2846
300;2848
300;2850
301;2852
301;2854
302;2856
303;2859
303;2861
303;2863
303;2865
303;2867
303;2869
303;2871
303;2873
303;2875
303;2877
303;2879
303;2881
303;2883
303;2885
303;2887
303;2889
303;2891
302;2893
302;2895
302;2897
302;2899
301;2902
301;2904
301;2906
301;2908
300;2910
300;2912
300;2914
299;2916
299;2918
299;2920
298;2922
298;2924
298;2926
298;2928
297;2930
297;2932
297;2934
297;2936
297;2938
297;2940
297;2942
296;2944
296;2946
296;2948
296;2950
296;2952
296;2954
295;2956
295;2958
295;2960
295;2962
295;2964
294;2966
293;2968
292;2970
291;2972
290;2974
289;2976
289;2978
288;2980
289;2982
290;2984
292;2987
294;2989
298;2991
303;2993
309;2995
317;2997
324;2999
332;3001
340;3003
348;3005
355;3007
360;3009
365;3011
368;3013
369;3015
369;3017
369;3019
367;3021
365;3023
363;3025
360;3027
357;3030
355;3032
351;3034
349;3036
346;3038
343;3040
340;3042
337;3044
334;3046
332;3048
329;3050
326;3052
323;3054
321;3056
319;3058
316;3060
314;3062
312;3064
310;3066
308;3068
306;3070
305;3072
303;3074
301;3076
300;3078
298;3080
297;3082
296;3084
294;3086
293;3088
292;3090
291;3092
290;3094
289;3096
288;3098
287;3100
287;3102
285;3104
285;3106
284;3108
283;3110
283;3112
282;3115
282;3117
281;3119
281;3121
281;3123
280;3125
280;3127
280;3129
280;3131
279;3133
279;3135
279;3137
279;3139
279;3141
279;3143
279;3145
279;3147
279;3149
280;3151
280;3153
280;3155
280;3158
280;3160
280;3162
280;3164
281;3166
281;3168
281;3170
281;3172
281;3174
282;3176
282;3178
282;3180
283;3182
283;3184
283;3186
284;3188
284;3190
285;3192
285;3194
286;3196
286;3198
286;3200
287;3202
287;3204
288;3206
288;3208
288;3210
289;3212
290;3214
291;3216
292;3218
293;3220
293;3222
294;3224
295;3226
296;3228
296;3230
297;3232
298;3234
299;3236
300;3238
300;3240
302;3243
302;3245
303;3247
304;3249
305;3251
306;3253
307;3255
308;3257
309;3259
310;3261
310;3263
311;3265
312;3267
313;3269
313;3271
314;3273
315;3275
315;3277
315;3279
315;3281
316;3283
316;3286
316;3288
316;3290
315;3292
315;3294
315;3296
314;3298
313;3300
313;3302
312;3304
311;3306
310;3308
309;3310
308;3312
307;3314
307;3316
306;3318
305;3320
304;3322
303;3324
302;3326
301;3328
300;3330
299;3332
299;3334
298;3336
297;3338
296;3340
295;3342
294;3344
294;3346
293;3348
292;3350
291;3352
291;3354
290;3356
290;3358
289;3360
288;3362
288;3364
288;3366
287;3368
287;3371
287;3373
286;3375
286;3377
286;3379
286;3381
285;3383
285;3385
286;3387
285;3389
285;3391
285;3393
285;3395
285;3397
285;3399
285;3401
285;3403
285;3405
285;3407
285;3409
285;3411
285;3414
285;3416
284;3418
285;3420
285;3422
285;3424
285;3426
285;3428
285;3430
285;3432
285;3434
285;3436
285;3438
285;3440
285;3442
285;3444
286;3446
286;3448
286;3450
286;3452
286;3454
286;3456
286;3458
286;3460
286;3462
286;3464
286;3466
286;3468
286;3470
287;3472
287;3474
287;3476
287;3478
287;3480
287;3482
287;3484
287;3486
287;3488
287;3490
287;3492
287;3494
287;3496
288;3499
288;3501
288;3503
288;3505
288;3507
289;3509
288;3511
288;3513
289;3515
289;3517
289;3519
289;3521
289;3523
289;3525
289;3527
289;3529
289;3531
289;3533
289;3535
289;3537
289;3539
289;3542
289;3544
289;3546
289;3548
290;3550
290;3552
290;3554
290;3556
290;3558
290;3560
290;3562
290;3564
290;3566
291;3568
291;3570
290;3572
291;3574
291;3576
291;3578
291;3580
291;3582
291;3584
291;3586
291;3588
291;3590
291;3592
291;3594
291;3596
291;3598
291;3600
292;3602
291;3604
291;3606
292;3608
292;3610
292;3612
292;3614
292;3616
292;3618
292;3620
292;3622
292;3624
292;3627
292;3629
292;3631
293;3633
293;3635
293;3637
293;3639
293;3641
293;3643
293;3645
293;3647
293;3649
293;3651
293;3653
293;3655
293;3657
294;3659
293;3661
294;3663
294;3665
294;3667
294;3670
294;3672
294;3674
294;3676
294;3678
294;3680
294;3682
294;3684
294;3686
294;3688
294;3690
294;3692
294;3694
295;3696
294;3698
294;3700
294;3702
295;3704
295;3706
295;3708
295;3710
295;3712
295;3714
295;3716
295;3718
295;3720
295;3722
295;3724
296;3726
296;3728
296;3730
296;3732
296;3734
296;3736
296;3738
296;3740
296;3742
296;3744
296;3746
296;3748
296;3750
296;3752
296;3755
296;3757
296;3759
296;3761
296;3763
296;3765
296;3767
296;3769
297;3771
297;3773
297;3775
297;3777
297;3779
297;3781
297;3783
297;3785
297;3787
297;3789
297;3791
297;3793
297;3795
296;3798
297;3800
297;3802
297;3804
297;3806
298;3808
298;3810
298;3812
298;3814
298;3816
298;3818
299;3820
299;3822
300;3824
300;3826
301;3828
301;3830
302;3832
302;3834
303;3836
304;3838
303;3840
303;3842
304;3844
304;3846
304;3848
304;3850
304;3852
304;3854
304;3856
304;3858
304;3860
304;3862
304;3864
304;3866
304;3868
304;3870
303;3872
303;3874
303;3876
302;3878
302;3880
302;3883
302;3885
301;3887
301;3889
300;3891
300;3893
300;3895
299;3897
299;3899
299;3901
299;3903
299;3905
298;3907
298;3909
298;3911
298;3913
297;3915
297;3917
297;3919
297;3921
297;3923
297;3926
297;3928
296;3930
296;3932
296;3934
296;3936
296;3938
296;3940
295;3942
295;3944
294;3946
293;3948
292;3950
291;3952
290;3954
289;3956
289;3958
289;3960
289;3962
290;3964
292;3966
294;3968
297;3970
302;3972
308;3974
315;3976
322;3978
330;3980
338;3982
345;3984
352;3986
358;3988
361;3990
364;3992
365;3994
365;3996
364;3998
362;4000
360;4002
357;4004
354;4006
351;4008
347;4011
345;4013
342;4015
339;4017
337;4019
334;4021
332;4023
330;4025
327;4027
325;4029
323;4031
320;4033
318;4035
316;4037
314;4039
312;4041
310;4043
308;4045
307;4047
305;4049
304;4051
302;4054
301;4056
299;4058
298;4060
297;4062
296;4064
295;4066
294;4068
293;4070
292;4072
291;4074
290;4076
289;4078
289;4080
288;4082
287;4084
287;4086
286;4088
286;4090
286;4092
285;4094
285;4096
285;4098
285;4100
284;4102
284;4104
284;4106
283;4108
283;4110
283;4112
283;4114
283;4116
283;4118
283;4120
283;4122
283;4124
283;4126
283;4128
283;4130
283;4132
283;4134
284;4136
284;4139
284;4141
284;4143
284;4145
284;4147
285;4149
285;4151
286;4153
286;4155
286;4157
286;4159
287;4161
287;4163
287;4165
288;4167
288;4169
289;4171
289;4173
290;4175
290;4177
290;4179
291;4182
291;4184
292;4186
292;4188
292;4190
294;4192
294;4194
295;4196
295;4198
296;4200
297;4202
298;4204
299;4206
299;4208
300;4210
301;4212
302;4214
303;4216
303;4218
304;4220
305;4222
306;4224
306;4226
307;4228
308;4230
308;4232
310;4234
310;4236
311;4238
312;4240
312;4242
313;4244
314;4246
314;4248
315;4250
316;4252
316;4254
317;4256
317;4258
317;4260
317;4262
317;4264
317;4267
317;4269
317;4271
317;4273
316;4275
316;4277
315;4279
314;4281
314;4283
313;4285
312;4287
312;4289
310;4291
309;4293
309;4295
307;4297
306;4299
305;4301
304;4303
303;4305
302;4307
301;4310
300;4312
299;4314
298;4316
297;4318
296;4320
295;4322
295;4324
294;4326
293;4328
293;4330
292;4332
291;4334
291;4336
290;4338
290;4340
289;4342
289;4344
289;4346
288;4348
288;4350
288;4352
287;4354
287;4356
287;4358
286;4360
286;4362
286;4364
286;4366
285;4368
286;4370
285;4372
285;4374
285;4376
285;4378
285;4380
285;4382
285;4384
285;4386
285;4388
285;4390
285;4392
285;4395
285;4397
285;4399
285;4401
285;4403
285;4405
285;4407
285;4409
286;4411
286;4413
286;4415
286;4417
286;4419
286;4421
286;4423
286;4425
287;4427
287;4429
286;4431
287;4433
287;4435
287;4438
287;4440
287;4442
287;4444
288;4446
288;4448
288;4450
288;4452
288;4454
288;4456
288;4458
288;4460
288;4462
288;4464
288;4466
289;4468
288;4470
289;4472
289;4474
289;4476
289;4478
289;4480
289;4482
289;4484
289;4486
289;4488
289;4490
289;4492
289;4494
289;4496
289;4498
290;4500
289;4502
289;4504
290;4506
290;4508
290;4510
290;4512
290;4514
290;4516
290;4518
290;4520
290;4523
291;4525
290;4527
290;4529
290;4531
290;4533
290;4535
290;4537
291;4539
291;4541
291;4543
291;4545
291;4547
291;4549
291;4551
291;4553
291;4555
291;4557
292;4559
292;4561
292;4563
292;4566
292;4568
292;4570
292;4572
292;4574
292;4576
292;4578
293;4580
293;4582
293;4584
293;4586
293;4588
293;4590
293;4592
293;4594
293;4596
293;4598
293;4600
293;4602
293;4604
293;4606
293;4608
294;4610
293;4612
293;4614
293;4616
294;4618
293;4620
293;4622
294;4624
294;4626
294;4628
294;4630
294;4632
294;4634
294;4636
294;4638
294;4640
295;4642
295;4644
295;4646
295;4648
295;4651
295;4653
295;4655
295;4657
295;4659
295;4661
295;4663
296;4665
295;4667
296;4669
296;4671
295;4673
296;4675
296;4677
296;4679
296;4681
296;4683
296;4685
296;4687
296;4689
296;4691
296;4694
296;4696
296;4698
296;4700
296;4702
296;4704
296;4706
297;4708
297;4710
297;4712
297;4714
297;4716
297;4718
297;4720
297;4722
297;4724
297;4726
297;4728
297;4730
297;4732
297;4734
297;4736
297;4738
297;4740
297;4742
297;4744
297;4746
297;4748
297;4750
297;4752
297;4754
297;4756
297;4758
298;4760
297;4762
297;4764
297;4766
297;4768
297;4770
297;4772
297;4774
297;4776
298;4779
297;4781
297;4783
298;4785
298;4787
298;4789
298;4791
298;4793
298;4795
298;4797
298;4799
298;4801
298;4803
298;4805
298;4807
298;4809
298;4811
298;4813
298;4815
298;4817
298;4819
298;4822
298;4824
298;4826
298;4828
298;4830
298;4832
298;4834
298;4836
298;4838
298;4840
298;4842
298;4844
298;4846
298;4848
299;4850
299;4852
298;4854
299;4856
299;4858
298;4860
299;4862
299;4864
298;4866
298;4868
299;4870
298;4872
298;4874
298;4876
298;4878
298;4880
298;4882
298;4884
298;4886
298;4888
298;4890
298;4892
298;4894
298;4896
298;4898
298;4900
299;4902
299;4904
299;4907
300;4909
300;4911
300;4913
300;4915
300;4917
300;4919
301;4921
301;4923
302;4925
303;4927
303;4929
303;4931
303;4933
304;4935
304;4937
304;4939
304;4941
304;4943
304;4945
304;4947
304;4950
304;4952
304;4954
303;4956
303;4958
303;4960
303;4962
303;4964
302;4966
302;4968
302;4970
302;4972
302;4974
301;4976
300;4978
300;4980
300;4982
300;4984
300;4986
299;4988
299;4990
299;4992
298;4994
298;4996
298;4998
298;5000
298;5002
297;5004
297;5006
297;5008
297;5010
297;5012
296;5014
296;5016
296;5018
296;5020
296;5022
296;5024
296;5026
295;5028
295;5030
294;5032
293;5035
291;5037
290;5039
289;5041
289;5043
289;5045
288;5047
289;5049
291;5051
293;5053
296;5055
301;5057
306;5059
313;5061
320;5063
328;5065
336;5067
344;5069
350;5071
357;5073
362;5075
366;5078
368;5080
369;5082
368;5084
367;5086
365;5088
363;5090
360;5092
357;5094
354;5096
351;5098
348;5100
345;5102
343;5104
339;5106
337;5108
334;5110
331;5112
329;5114
326;5116
323;5118
322;5120
320;5122
317;5124
315;5126
313;5128
311;5130
309;5132
307;5134
305;5136
303;5138
301;5140
300;5142
298;5144
296;5146
295;5148
294;5150
292;5152
291;5154
289;5156
288;5158
288;5160
286;5163
285;5165
285;5167
284;5169
283;5171
283;5173
282;5175
282;5177
281;5179
280;5181
280;5183
280;5185
279;5187
279;5189
279;5191
278;5193
278;5195
278;5197
278;5199
278;5201
277;5203
278;5206
278;5208
277;5210
278;5212
278;5214
277;5216
278;5218
278;5220
277;5222
278;5224
278;5226
278;5228
278;5230
279;5232
278;5234
279;5236
279;5238
279;5240
280;5242
280;5244
280;5246
281;5248
281;5250
281;5252
282;5254
282;5256
283;5258
283;5260
283;5262
284;5264
285;5266
285;5268
286;5270
286;5272
287;5274
288;5276
288;5278
289;5280
290;5282
290;5284
291;5286
292;5288
292;5291
293;5293
294;5295
295;5297
295;5299
296;5301
297;5303
298;5305
299;5307
300;5309
301;5311
302;5313
302;5315
303;5317
305;5319
305;5321
306;5323
307;5325
308;5327
309;5329
310;5331
310;5334
311;5336
312;5338
312;5340
313;5342
313;5344
314;5346
314;5348
314;5350
314;5352
314;5354
314;5356
314;5358
314;5360
313;5362
313;5364
313;5366
312;5368
311;5370
310;5372
309;5374
309;5376
308;5378
307;5380
306;5382
305;5384
305;5386
303;5388
302;5390
301;5392
300;5394
299;5396
298;5398
297;5400
296;5402
295;5404
294;5406
293;5408
293;5410
292;5412
291;5414
290;5416
290;5419
289;5421
288;5423
287;5425
287;5427
287;5429
286;5431
285;5433
285;5435
285;5437
284;5439
284;5441
284;5443
284;5445
283;5447
283;5449
283;5451
283;5453
283;5455
282;5457
282;5459
282;5462
282;5464
282;5466
282;5468
282;5470
282;5472
282;5474
281;5476
281;5478
282;5480
281;5482
282;5484
282;5486
282;5488
282;5490
282;5492
282;5494
282;5496
282;5498
282;5500
282;5502
283;5504
282;5506
283;5508
283;5510
283;5512
283;5514
283;5516
284;5518
283;5520
284;5522
284;5524
284;5526
285;5528
285;5530
284;5532
285;5534
285;5536
285;5538
285;5540
285;5542
285;5544
285;5547
286;5549
286;5551
286;5553
286;5555
286;5557
287;5559
286;5561
286;5563
287;5565
287;5567
287;5569
287;5571
287;5573
287;5575
287;5577
287;5579
287;5581
287;5583
288;5585
287;5587
287;5590
288;5592
288;5594
288;5596
288;5598
288;5600
288;5602
288;5604
289;5606
289;5608
289;5610
289;5612
289;5614
289;5616
290;5618
289;5620
289;5622
290;5624
290;5626
290;5628
290;5630
290;5632
290;5634
290;5636
290;5638
290;5640
290;5642
291;5644
291;5646
291;5648
291;5650
291;5652
291;5654
291;5656
291;5658
291;5660
291;5662
291;5664
291;5666
291;5668
292;5670
292;5672
292;5675
292;5677
292;5679
292;5681
292;5683
292;5685
293;5687
293;5689
293;5691
293;5693
293;5695
293;5697
293;5699
293;5701
293;5703
294;5705
293;5707
293;5709
293;5711
294;5713
294;5715
294;5718
294;5720
294;5722
294;5724
294;5726
294;5728
294;5730
294;5732
294;5734
294;5736
294;5738
294;5740
294;5742
294;5744
294;5746
294;5748
295;5750
295;5752
295;5754
295;5756
295;5758
296;5760
296;5762
296;5764
296;5766
297;5768
297;5770
297;5772
298;5774
298;5776
298;5778
299;5780
300;5782
300;5784
301;5786
301;5788
301;5790
301;5792
301;5794
302;5796
302;5798
302;5800
302;5803
302;5805
302;5807
302;5809
302;5811
302;5813
301;5815
301;5817
301;5819
300;5821
300;5823
300;5825
300;5827
300;5829
299;5831
299;5833
299;5835
298;5837
298;5839
298;5841
298;5843
297;5846
297;5848
297;5850
297;5852
296;5854
296;5856
296;5858
296;5860
296;5862
296;5864
296;5866
296;5868
295;5870
295;5872
295;5874
295;5876
295;5878
295;5880
295;5882
295;5884
295;5886
294;5888
294;5890
293;5892
292;5894
291;5896
289;5898
288;5900
288;5902
288;5904
288;5906
289;5908
291;5910
294;5912
299;5914
303;5916
309;5918
317;5920
324;5922
332;5924
340;5926
347;5928
353;5931
359;5933
363;5935
364;5937
366;5939
366;5941
364;5943
362;5945
360;5947
357;5949
354;5951
352;5953
348;5955
346;5957
343;5959
340;5961
337;5963
335;5965
332;5967
330;5969
328;5971
325;5974
323;5976
320;5978
318;5980
316;5982
314;5984
312;5986
311;5988
309;5990
307;5992
305;5994
303;5996
302;5998
301;6000
299;6002
298;6004
297;6006
295;6008
295;6010
293;6012
292;6014
292;6016
291;6018
290;6020
289;6022
289;6024
288;6026
287;6028
287;6030
286;6032
286;6034
285;6036
284;6038
284;6040
284;6042
283;6044
283;6046
283;6048
283;6050
283;6052
283;6054
282;6056
282;6059
282;6061
282;6063
282;6065
282;6067
282;6069
283;6071
283;6073
283;6075
283;6077
283;6079
283;6081
283;6083
283;6085
283;6087
284;6089
284;6091
284;6093
284;6095
285;6097
285;6099
285;6102
286;6104
286;6106
286;6108
287;6110
287;6112
287;6114
288;6116
288;6118
289;6120
289;6122
289;6124
290;6126
291;6128
291;6130
292;6132
293;6134
293;6136
294;6138
295;6140
295;6142
296;6144
296;6146
297;6148
298;6150
299;6152
299;6154
300;6156
301;6158
302;6160
303;6162
304;6164
304;6166
305;6168
306;6170
307;6172
308;6174
308;6176
309;6178
310;6180
311;6182
312;6184
313;6187
313;6189
314;6191
314;6193
315;6195
316;6197
316;6199
316;6201
316;6203
317;6205
317;6207
317;6209
317;6211
317;6213
316;6215
316;6217
315;6219
315;6221
314;6223
313;6225
312;6227
311;6230
311;6232
310;6234
309;6236
308;6238
307;6240
306;6242
305;6244
304;6246
303;6248
302;6250
301;6252
300;6254
299;6256
298;6258
297;6260
296;6262
295;6264
295;6266
294;6268
293;6270
292;6272
292;6274
291;6276
290;6278
290;6280
290;6282
289;6284
289;6286
288;6288
288;6290
288;6292
287;6294
287;6296
286;6298
286;6300
286;6302
286;6304
286;6306
286;6308
285;6310
285;6312
285;6315
285;6317
285;6319
285;6321
285;6323
285;6325
285;6327
285;6329
285;6331
285;6333
285;6335
285;6337
285;6339
285;6341
285;6343
286;6345
285;6347
286;6349
286;6351
286;6353
286;6355
286;6358
286;6360
286;6362
287;6364
286;6366
287;6368
287;6370
287;6372
287;6374
287;6376
287;6378
287;6380
287;6382
287;6384
288;6386
287;6388
288;6390
288;6392
288;6394
288;6396
288;6398
288;6400
288;6402
289;6404
288;6406
289;6408
289;6410
289;6412
289;6414
289;6416
289;6418
289;6420
289;6422
289;6424
289;6426
289;6428
289;6430
290;6432
289;6434
289;6436
290;6438
290;6440
290;6443
290;6445
290;6447
290;6449
290;6451
290;6453
290;6455
290;6457
290;6459
290;6461
290;6463
290;6465
290;6467
290;6469
290;6471
290;6473
290;6475
290;6477
290;6479
290;6481
291;6483
291;6486
291;6488
291;6490
291;6492
291;6494
291;6496
291;6498
291;6500
291;6502
291;6504
291;6506
291;6508
291;6510
291;6512
292;6514
292;6516
292;6518
292;6520
292;6522
292;6524
292;6526
292;6528
292;6530
292;6532
292;6534
292;6536
292;6538
292;6540
292;6542
292;6544
292;6546
292;6548
292;6550
293;6552
293;6554
293;6556
293;6558
293;6560
293;6562
294;6564
293;6566
294;6568
294;6571
294;6573
294;6575
294;6577
294;6579
294;6581
294;6583
294;6585
294;6587
294;6589
294;6591
294;6593
293;6595
294;6597
294;6599
294;6601
294;6603
294;6605
294;6607
295;6609
295;6611
295;6614
295;6616
295;6618
295;6620
295;6622
295;6624
295;6626
296;6628
296;6630
295;6632
296;6634
295;6636
295;6638
295;6640
295;6642
295;6644
295;6646
295;6648
295;6650
295;6652
296;6654
295;6656
295;6658
296;6660
295;6662
296;6664
295;6666
295;6668
295;6670
294;6672
294;6674
294;6676
294;6678
294;6680
294;6682
294;6684
295;6686
294;6688
294;6690
294;6692
294;6694
294;6696
293;6699
294;6701
294;6703
294;6705
294;6707
294;6709
294;6711
294;6713
294;6715
294;6717
294;6719
294;6721
294;6723
294;6725
294;6727
294;6729
294;6731
294;6733
294;6735
294;6737
294;6739
294;6742
294;6744
294;6746
294;6748
293;6750
293;6752
293;6754
293;6756
292;6758
293;6760
293;6762
293;6764
294;6766
294;6768
295;6770
295;6772
295;6774
296;6776
296;6778
297;6780
297;6782
298;6784
299;6786
299;6788
299;6790
299;6792
299;6794
299;6796
299;6798
299;6800
299;6802
300;6804
300;6806
299;6808
299;6810
299;6812
299;6814
298;6816
298;6818
298;6820
298;6822
298;6824
298;6827
297;6829
297;6831
297;6833
297;6835
296;6837
296;6839
296;6841
295;6843
295;6845
294;6847
294;6849
294;6851
294;6853
293;6855
293;6857
294;6859
293;6861
293;6863
293;6865
293;6867
292;6870
292;6872
292;6874
291;6876
291;6878
291;6880
291;6882
291;6884
290;6886
289;6888
288;6890
287;6892
286;6894
285;6896
285;6898
285;6900
285;6902
285;6904
287;6906
289;6908
293;6910
295;6912
300;6914
306;6916
314;6918
321;6920
329;6922
336;6924
343;6926
350;6928
355;6930
359;6932
361;6934
362;6936
361;6938
360;6940
358;6942
355;6944
353;6946
350;6948
347;6950
344;6952
341;6955
338;6957
336;6959
333;6961
330;6963
328;6965
325;6967
323;6969
321;6971
318;6973
316;6975
314;6977
312;6979
310;6981
308;6983
306;6985
304;6987
302;6989
301;6991
299;6993
298;6995
296;6998
295;7000
293;7002
292;7004
291;7006
290;7008
289;7010
288;7012
287;7014
286;7016
285;7018
285;7020
284;7022
283;7024
283;7026
282;7028
282;7030
281;7032
281;7034
280;7036
280;7038
280;7040
280;7042
280;7044
280;7046
280;7048
279;7050
279;7052
279;7054
279;7056
279;7058
279;7060
279;7062
279;7064
280;7066
279;7068
280;7070
280;7072
280;7074
281;7076
280;7078
281;7080
281;7083
281;7085
282;7087
282;7089
282;7091
283;7093
283;7095
283;7097
284;7099
284;7101
285;7103
285;7105
286;7107
286;7109
287;7111
287;7113
288;7115
288;7117
289;7119
289;7121
290;7123
291;7126
291;7128
292;7130
293;7132
293;7134
294;7136
295;7138
295;7140
296;7142
297;7144
298;7146
299;7148
300;7150
301;7152
302;7154
303;7156
304;7158
305;7160
306;7162
307;7164
308;7166
308;7168
309;7170
310;7172
311;7174
312;7176
313;7178
314;7180
314;7182
315;7184
316;7186
317;7188
318;7190
318;7192
319;7194
319;7196
320;7198
320;7200
320;7202
320;7204
320;7206
320;7208
320;7211
320;7213
320;7215
319;7217
319;7219
318;7221
317;7223
317;7225
316;7227
315;7229
314;7231
313;7233
312;7235
311;7237
310;7239
309;7241
308;7243
307;7245
307;7247
305;7249
304;7251
303;7254
303;7256
301;7258
301;7260
300;7262
299;7264
298;7266
297;7268
296;7270
296;7272
295;7274
294;7276
294;7278
293;7280
292;7282
292;7284
292;7286
291;7288
291;7290
290;7292
290;7294
290;7296
289;7298
289;7300
288;7302
289;7304
288;7306
288;7308
288;7310
288;7312
287;7314
288;7316
288;7318
287;7320
287;7322
288;7324
287;7326
287;7328
287;7330
287;7332
288;7334
287;7336
287;7339
287;7341
288;7343
287;7345
288;7347
288;7349
288;7351
288;7353
288;7355
288;7357
288;7359
288;7361
288;7363
289;7365
289;7367
289;7369
289;7371
289;7373
289;7375
289;7377
290;7379
290;7382
290;7384
290;7386
290;7388
291;7390
291;7392
290;7394
291;7396
291;7398
291;7400
291;7402
291;7404
291;7406
292;7408
292;7410
292;7412
292;7414
292;7416
292;7418
292;7420
292;7422
292;7424
293;7426
293;7428
292;7430
293;7432
293;7434
293;7436
293;7438
293;7440
293;7442
293;7444
294;7446
294;7448
294;7450
294;7452
294;7454
294;7456
294;7458
294;7460
294;7462
294;7464
295;7467
295;7469
295;7471
295;7473
295;7475
295;7477
295;7479
295;7481
295;7483
295;7485
295;7487
296;7489
296;7491
295;7493
296;7495
296;7497
296;7499
296;7501
296;7503
296;7505
296;7507
296;7510
296;7512
296;7514
296;7516
296;7518
296;7520
296;7522
296;7524
297;7526
296;7528
297;7530
297;7532
296;7534
297;7536
297;7538
297;7540
297;7542
297;7544
297;7546
297;7548
297;7550
297;7552
297;7554
297;7556
297;7558
297;7560
297;7562
298;7564
298;7566
298;7568
299;7570
299;7572
300;7574
300;7576
300;7578
300;7580
301;7582
301;7584
302;7586
302;7588
302;7590
303;7592
303;7595
303;7597
304;7599
303;7601
304;7603
304;7605
304;7607
304;7609
304;7611
304;7613
303;7615
303;7617
303;7619
303;7621
303;7623
303;7625
303;7627
302;7629
302;7631
302;7633
302;7635
301;7638
301;7640
301;7642
300;7644
300;7646
300;7648
299;7650
299;7652
299;7654
299;7656
298;7658
298;7660
298;7662
298;7664
298;7666
297;7668
297;7670
297;7672
297;7674
296;7676
297;7678
297;7680
296;7682
296;7684
296;7686
296;7688
296;7690
296;7692
296;7694
295;7696
294;7698
293;7700
292;7702
291;7704
290;7706
290;7708
289;7710
289;7712
290;7714
291;7716
293;7718
296;7720
300;7723
305;7725
312;7727
318;7729
326;7731
334;7733
342;7735
349;7737
355;7739
360;7741
364;7743
367;7745
368;7747
367;7749
367;7751
365;7753
363;7755
360;7757
357;7759
354;7761
352;7763
349;7766
346;7768
343;7770
340;7772
338;7774
335;7776
332;7778
330;7780
327;7782
325;7784
323;7786
320;7788
318;7790
316;7792
314;7794
312;7796
310;7798
308;7800
307;7802
305;7804
303;7806
302;7808
301;7810
299;7812
298;7814
297;7816
296;7818
294;7820
293;7822
292;7824
291;7826
290;7828
289;7830
288;7832
288;7834
287;7836
287;7838
286;7840
285;7842
285;7844
284;7846
284;7848
284;7851
284;7853
283;7855
283;7857
283;7859
282;7861
282;7863
282;7865
282;7867
282;7869
282;7871
282;7873
282;7875
281;7877
282;7879
282;7881
282;7883
282;7885
282;7887
282;7889
282;7891
283;7894
283;7896
283;7898
283;7900
283;7902
284;7904
284;7906
284;7908
285;7910
285;7912
285;7914
286;7916
286;7918
286;7920
287;7922
287;7924
287;7926
288;7928
288;7930
289;7932
289;7934
290;7936
290;7938
290;7940
291;7942
292;7944
293;7946
293;7948
294;7950
294;7952
295;7954
296;7956
296;7958
297;7960
298;7962
299;7964
300;7966
300;7968
301;7970
302;7972
303;7974
304;7976
305;7979
305;7981
306;7983
307;7985
308;7987
309;7989
309;7991
311;7993
311;7995
312;7997
312;7999
313;8001
313;8003
314;8005
315;8007
315;8009
315;8011
315;8013
315;8015
315;8017
315;8019
315;8022
314;8024
314;8026
313;8028
313;8030
312;8032
311;8034
311;8036
310;8038
309;8040
308;8042
307;8044
306;8046
305;8048
304;8050
303;8052
302;8054
301;8056
300;8058
299;8060
299;8062
298;8064
297;8066
297;8068
295;8070
295;8072
294;8074
293;8076
293;8078
292;8080
291;8082
291;8084
290;8086
290;8088
289;8090
289;8092
288;8094
288;8096
287;8098
287;8100
286;8102
287;8104
286;8107
286;8109
286;8111
285;8113
285;8115
285;8117
285;8119
285;8121
285;8123
285;8125
285;8127
285;8129
284;8131
284;8133
284;8135
284;8137
284;8139
284;8141
284;8143
284;8145
284;8147
284;8150
284;8152
284;8154
284;8156
284;8158
284;8160
284;8162
284;8164
284;8166
285;8168
285;8170
285;8172
285;8174
285;8176
285;8178
285;8180
285;8182
285;8184
285;8186
285;8188
286;8190
286;8192
286;8194
286;8196
286;8198
287;8200
287;8202
287;8204
287;8206
287;8208
287;8210
287;8212
288;8214
288;8216
288;8218
288;8220
288;8222
288;8224
288;8226
288;8228
288;8230
289;8232
289;8235
289;8237
289;8239
289;8241
289;8243
289;8245
290;8247
289;8249
290;8251
290;8253
290;8255
290;8257
290;8259
290;8261
290;8263
291;8265
290;8267
290;8269
291;8271
291;8273
291;8275
291;8278
291;8280
291;8282
291;8284
291;8286
291;8288
291;8290
291;8292
292;8294
291;8296
291;8298
292;8300
292;8302
292;8304
292;8306
292;8308
292;8310
292;8312
292;8314
292;8316
292;8318
292;8320
292;8322
292;8324
292;8326
292;8328
292;8330
293;8332
293;8334
293;8336
293;8338
293;8340
293;8342
293;8344
293;8346
293;8348
294;8350
294;8352
294;8354
294;8356
294;8358
294;8360
294;8363
294;8365
294;8367
294;8369
294;8371
294;8373
294;8375
294;8377
295;8379
295;8381
295;8383
295;8385
295;8387
295;8389
295;8391
295;8393
295;8395
295;8397
295;8399
295;8401
295;8403
295;8406
295;8408
295;8410
296;8412
295;8414
295;8416
296;8418
295;8420
296;8422
296;8424
296;8426
296;8428
296;8430
296;8432
296;8434
296;8436
296;8438
296;8440
296;8442
296;8444
296;8446
296;8448
296;8450
296;8452
297;8454
296;8456
297;8458
296;8460
296;8462
297;8464
297;8466
297;8468
297;8470
297;8472
297;8474
297;8476
297;8478
297;8480
297;8482
297;8484
297;8486
297;8488
298;8491
297;8493
297;8495
298;8497
297;8499
297;8501
297;8503
298;8505
298;8507
298;8509
298;8511
298;8513
298;8515
298;8517
298;8519
298;8521
298;8523
298;8525
298;8527
298;8529
298;8531
298;8534
298;8536
298;8538
298;8540
298;8542
298;8544
298;8546
298;8548
298;8550
298;8552
299;8554
299;8556
299;8558
298;8560
298;8562
299;8564
299;8566
299;8568
299;8570
298;8572
299;8574
299;8576
298;8578
298;8580
299;8582
299;8584
298;8586
299;8588
298;8590
298;8592
299;8594
298;8596
298;8598
299;8600
298;8602
298;8604
299;8606
299;8608
299;8610
299;8612
300;8614
300;8616
300;8619
300;8621
300;8623
301;8625
301;8627
302;8629
303;8631
303;8633
303;8635
303;8637
303;8639
303;8641
303;8643
304;8645
304;8647
304;8649
304;8651
303;8653
303;8655
303;8657
303;8659
303;8662
303;8664
302;8666
303;8668
303;8670
302;8672
302;8674
301;8676
301;8678
300;8680
300;8682
300;8684
300;8686
299;8688
299;8690
299;8692
299;8694
299;8696
298;8698
298;8700
298;8702
298;8704
298;8706
297;8708
297;8710
297;8712
297;8714
297;8716
296;8718
296;8720
296;8722
296;8724
296;8726
296;8728
295;8730
295;8732
294;8734
293;8736
292;8738
291;8740
290;8742
289;8744
289;8747
289;8749
289;8751
290;8753
292;8755
294;8757
298;8759
303;8761
309;8763
317;8765
325;8767
332;8769
340;8771
348;8773
355;8775
360;8777
365;8779
368;8781
369;8783
369;8785
369;8787
367;8790
365;8792
362;8794
360;8796
357;8798
354;8800
352;8802
348;8804
345;8806
343;8808
339;8810
337;8812
334;8814
331;8816
328;8818
326;8820
323;8822
321;8824
319;8826
317;8828
314;8830
313;8832
311;8834
309;8836
307;8838
305;8840
304;8842
302;8844
300;8846
299;8848
297;8850
296;8852
294;8854
293;8856
292;8858
291;8860
290;8862
289;8864
287;8866
287;8868
286;8870
285;8872
284;8875
284;8877
283;8879
282;8881
282;8883
282;8885
281;8887
281;8889
281;8891
280;8893
280;8895
279;8897
280;8899
279;8901
279;8903
279;8905
279;8907
279;8909
279;8911
279;8913
279;8915
279;8918
279;8920
279;8922
279;8924
279;8926
280;8928
280;8930
280;8932
280;8934
280;8936
280;8938
281;8940
281;8942
281;8944
281;8946
282;8948
282;8950
282;8952
283;8954
283;8956
284;8958
284;8960
284;8962
285;8964
285;8966
286;8968
286;8970
287;8972
287;8974
288;8976
288;8978
289;8980
290;8982
291;8984
291;8986
292;8988
293;8990
293;8992
294;8994
295;8996
296;8998
297;9000
298;9003
299;9005
299;9007
301;9009
301;9011
302;9013
303;9015
304;9017
305;9019
306;9021
307;9023
308;9025
309;9027
310;9029
310;9031
311;9033
312;9035
313;9037
314;9039
314;9041
315;9043
315;9046
316;9048
316;9050
317;9052
316;9054
316;9056
317;9058
317;9060
316;9062
316;9064
316;9066
315;9068
315;9070
314;9072
313;9074
312;9076
311;9078
310;9080
309;9082
309;9084
307;9086
307;9088
306;9090
305;9092
304;9094
303;9096
302;9098
301;9100
300;9102
299;9104
298;9106
297;9108
296;9110
295;9112
295;9114
294;9116
293;9118
292;9120
291;9122
291;9124
290;9126
289;9128
289;9131
289;9133
288;9135
288;9137
287;9139
286;9141
286;9143
286;9145
286;9147
285;9149
285;9151
285;9153
284;9155
285;9157
284;9159
284;9161
284;9163
284;9165
284;9167
284;9169
284;9171
284;9174
284;9176
284;9178
284;9180
283;9182
284;9184
283;9186
283;9188
284;9190
284;9192
283;9194
284;9196
284;9198
284;9200
284;9202
284;9204
284;9206
285;9208
285;9210
284;9212
285;9214
285;9216
285;9218
285;9220
285;9222
285;9224
285;9226
285;9228
285;9230
285;9232
286;9234
286;9236
285;9238
285;9240
286;9242
286;9244
286;9246
286;9248
286;9250
286;9252
286;9254
286;9256
286;9259
286;9261
286;9263
287;9265
287;9267
287;9269
287;9271
287;9273
287;9275
287;9277
287;9279
287;9281
287;9283
287;9285
287;9287
287;9289
288;9291
288;9293
287;9295
287;9297
288;9299
287;9302
288;9304
288;9306
288;9308
288;9310
288;9312
288;9314
288;9316
288;9318
288;9320
288;9322
288;9324
289;9326
289;9328
288;9330
289;9332
289;9334
289;9336
289;9338
289;9340
289;9342
289;9344
290;9346
290;9348
289;9350
290;9352
290;9354
290;9356
290;9358
290;9360
290;9362
290;9364
290;9366
290;9368
290;9370
290;9372
291;9374
290;9376
291;9378
291;9380
291;9382
291;9384
291;9387
291;9389
291;9391
291;9393
291;9395
291;9397
291;9399
291;9401
292;9403
292;9405
292;9407
292;9409
292;9411
292;9413
292;9415
292;9417
292;9419
293;9421
292;9423
293;9425
293;9427
293;9430
293;9432
293;9434
293;9436
293;9438
294;9440
294;9442
293;9444
294;9446
294;9448
294;9450
294;9452
294;9454
294;9456
294;9458
294;9460
294;9462
294;9464
294;9466
295;9468
295;9470
294;9472
295;9474
295;9476
295;9478
295;9480
295;9482
295;9484
295;9486
295;9488
295;9490
295;9492
295;9494
296;9496
295;9498
295;9500
295;9502
296;9504
296;9506
296;9508
296;9510
296;9512
296;9515
296;9517
296;9519
296;9521
296;9523
297;9525
296;9527
296;9529
297;9531
296;9533
297;9535
296;9537
296;9539
296;9541
296;9543
296;9545
296;9547
296;9549
296;9551
296;9553
296;9555
297;9558
296;9560
297;9562
297;9564
296;9566
296;9568
297;9570
297;9572
296;9574
296;9576
296;9578
296;9580
296;9582
296;9584
296;9586
296;9588
296;9590
296;9592
296;9594
296;9596
296;9598
297;9600
296;9602
296;9604
297;9606
296;9608
297;9610
297;9612
298;9614
298;9616
298;9618
298;9620
299;9622
299;9624
299;9626
300;9628
300;9630
301;9632
301;9634
301;9636
302;9638
302;9640
303;9643
303;9645
303;9647
303;9649
303;9651
303;9653
303;9655
303;9657
303;9659
303;9661
302;9663
302;9665
301;9667
301;9669
301;9671
301;9673
302;9675
301;9677
301;9679
301;9681
300;9683
300;9686
300;9688
299;9690
298;9692
298;9694
298;9696
298;9698
297;9700
297;9702
297;9704
297;9706
297;9708
297;9710
296;9712
296;9714
296;9716
296;9718
296;9720
296;9722
295;9724
295;9726
295;9728
295;9730
295;9732
294;9734
294;9736
293;9738
293;9740
292;9742
290;9744
289;9746
287;9748
286;9750
284;9752
284;9754
284;9756
285;9758
286;9760
288;9762
292;9764
297;9766
303;9768
310;9771
317;9773
324;9775
333;9777
341;9779
348;9781
354;9783
360;9785
363;9787
365;9789
366;9791
365;9793
364;9795
362;9797
360;9799
357;9801
354;9803
351;9805
348;9807
345;9809
342;9811
339;9814
336;9816
334;9818
331;9820
328;9822
326;9824
323;9826
320;9828
318;9830
316;9832
314;9834
312;9836
309;9838
307;9840
305;9842
304;9844
302;9846
300;9848
299;9850
297;9852
296;9854
295;9856
294;9858
292;9860
291;9862
290;9864
288;9866
288;9868
287;9870
286;9872
285;9874
284;9876
284;9878
283;9880
283;9882
282;9884
281;9886
281;9888
281;9890
280;9892
280;9894
280;9896
279;9899
279;9901
279;9903
279;9905
278;9907
278;9909
279;9911
279;9913
278;9915
279;9917
279;9919
278;9921
279;9923
279;9925
279;9927
279;9929
279;9931
279;9933
280;9935
280;9937
280;9939
280;9942
281;9944
281;9946
281;9948
281;9950
282;9952
282;9954
282;9956
283;9958
283;9960
283;9962
284;9964
285;9966
285;9968
286;9970
286;9972
286;9974
287;9976
288;9978
288;9980
289;9982
289;9984
290;9986
290;9988
291;9990
292;9992
293;9994
294;9996
294;9998
295;10000
296;10002
297;10004
297;10006
298;10008
299;10010
300;10012
301;10014
302;10016
303;10018
304;10020
305;10022
305;10024
306;10027
307;10029
308;10031
309;10033
310;10035
311;10037
312;10039
313;10041
313;10043
314;10045
314;10047
315;10049
315;10051
316;10053
316;10055
316;10057
316;10059
316;10061
316;10063
316;10065
316;10067
316;10070
315;10072
314;10074
314;10076
313;10078
312;10080
311;10082
311;10084
310;10086
309;10088
308;10090
306;10092
306;10094
304;10096
303;10098
302;10100
301;10102
300;10104
298;10106
298;10108
297;10110
296;10112
296;10114
295;10116
294;10118
293;10120
292;10122
291;10124
290;10126
289;10128
289;10130
288;10132
287;10134
287;10136
287;10138
286;10140
286;10142
285;10144
285;10146
284;10148
284;10150
284;10152
284;10155
283;10157
283;10159
283;10161
282;10163
282;10165
282;10167
282;10169
282;10171
282;10173
282;10175
282;10177
282;10179
282;10181
282;10183
282;10185
282;10187
282;10189
282;10191
282;10193
282;10195
282;10198
282;10200
282;10202
283;10204
283;10206
283;10208
283;10210
283;10212
283;10214
283;10216
283;10218
284;10220
284;10222
284;10224
284;10226
284;10228
285;10230
284;10232
285;10234
285;10236
285;10238
285;10240
285;10242
285;10244
285;10246
285;10248
286;10250
286;10252
286;10254
286;10256
286;10258
286;10260
286;10262
286;10264
287;10266
287;10268
287;10270
287;10272
287;10274
287;10276
287;10278
287;10280
287;10283
288;10285
288;10287
288;10289
288;10291
288;10293
288;10295
288;10297
288;10299
288;10301
288;10303
289;10305
289;10307
289;10309
289;10311
289;10313
289;10315
289;10317
289;10319
290;10321
289;10323
289;10326
290;10328
290;10330
290;10332
290;10334
290;10336
290;10338
290;10340
290;10342
290;10344
290;10346
290;10348
290;10350
290;10352
290;10354
291;10356
291;10358
291;10360
291;10362
291;10364
291;10366
291;10368
291;10370
291;10372
292;10374
292;10376
292;10378
292;10380
292;10382
292;10384
292;10386
292;10388
293;10390
292;10392
292;10394
293;10396
293;10398
293;10400
293;10402
293;10404
293;10406
293;10408
293;10411
293;10413
293;10415
293;10417
293;10419
293;10421
293;10423
293;10425
293;10427
294;10429
294;10431
294;10433
294;10435
295;10437
295;10439
295;10441
295;10443
295;10445
295;10447
295;10449
296;10451
297;10454
297;10456
297;10458
298;10460
298;10462
299;10464
300;10466
300;10468
300;10470
301;10472
301;10474
301;10476
301;10478
301;10480
301;10482
301;10484
301;10486
302;10488
302;10490
301;10492
301;10494
301;10496
301;10498
301;10500
301;10502
300;10504
300;10506
300;10508
300;10510
299;10512
299;10514
299;10516
298;10518
298;10520
298;10522
297;10524
297;10526
298;10528
297;10530
297;10532
297;10534
296;10536
296;10539
296;10541
296;10543
296;10545
296;10547
295;10549
295;10551
295;10553
295;10555
295;10557
295;10559
295;10561
295;10563
294;10565
295;10567
295;10569
294;10571
294;10573
294;10575
293;10577
292;10579
291;10582
289;10584
288;10586
288;10588
287;10590
288;10592
288;10594
289;10596
291;10598
295;10600
299;10602
305;10604
311;10606
319;10608
326;10610
334;10612
341;10614
348;10616
353;10618
358;10620
361;10622
362;10624
363;10626
363;10628
362;10630
360;10632
358;10634
355;10636
352;10638
349;10640
346;10642
344;10644
341;10646
338;10648
336;10650
333;10652
331;10654
328;10656
326;10658
324;10660
321;10662
319;10664
317;10667
315;10669
313;10671
311;10673
309;10675
307;10677
306;10679
304;10681
303;10683
301;10685
300;10687
299;10689
297;10691
296;10693
295;10695
294;10697
293;10699
292;10701
291;10703
290;10705
290;10707
289;10710
288;10712
287;10714
287;10716
287;10718
286;10720
285;10722
285;10724
285;10726
284;10728
284;10730
284;10732
284;10734
284;10736
284;10738
283;10740
283;10742
283;10744
283;10746
283;10748
283;10750
283;10752
283;10754
283;10756
283;10758
283;10760
283;10762
284;10764
284;10766
284;10768
284;10770
284;10772
284;10774
284;10776
285;10778
285;10780
285;10782
285;10784
286;10786
286;10788
286;10790
287;10792
287;10795
287;10797
288;10799
288;10801
288;10803
289;10805
289;10807
290;10809
290;10811
291;10813
291;10815
292;10817
292;10819
293;10821
293;10823
294;10825
295;10827
295;10829
296;10831
297;10833
298;10835
299;10838
300;10840
301;10842
301;10844
302;10846
303;10848
304;10850
305;10852
306;10854
306;10856
307;10858
308;10860
309;10862
309;10864
310;10866
311;10868
312;10870
313;10872
314;10874
314;10876
315;10878
315;10880
316;10882
316;10884
316;10886
317;10888
317;10890
317;10892
317;10894
317;10896
317;10898
316;10900
316;10902
315;10904
315;10906
314;10908
313;10910
313;10912
312;10914
311;10916
310;10918
309;10920
308;10923
307;10925
306;10927
305;10929
304;10931
303;10933
302;10935
302;10937
300;10939
300;10941
299;10943
298;10945
297;10947
296;10949
295;10951
295;10953
294;10955
293;10957
292;10959
292;10961
291;10963
291;10966
290;10968
290;10970
289;10972
289;10974
288;10976
288;10978
287;10980
287;10982
287;10984
287;10986
286;10988
286;10990
286;10992
285;10994
285;10996
285;10998
285;11000
285;11002
285;11004
285;11006
285;11008
284;11010
284;11012
285;11014
285;11016
284;11018
285;11020
285;11022
285;11024
285;11026
285;11028
285;11030
285;11032
286;11034
286;11036
286;11038
286;11040
286;11042
286;11044
286;11046
287;11048
286;11051
286;11053
287;11055
287;11057
287;11059
287;11061
287;11063
287;11065
288;11067
288;11069
288;11071
288;11073
288;11075
289;11077
288;11079
288;11081
289;11083
288;11085
289;11087
289;11089
289;11091
289;11094
289;11096
289;11098
289;11100
290;11102
289;11104
289;11106
290;11108
290;11110
290;11112
290;11114
290;11116
290;11118
290;11120
290;11122
291;11124
291;11126
291;11128
291;11130
291;11132
291;11134
291;11136
291;11138
291;11140
291;11142
291;11144
291;11146
291;11148
292;11150
292;11152
292;11154
292;11156
292;11158
292;11160
292;11162
292;11164
292;11166
292;11168
292;11170
292;11172
292;11174
292;11176
292;11179
292;11181
292;11183
292;11185
292;11187
293;11189
293;11191
293;11193
293;11195
293;11197
293;11199
293;11201
293;11203
293;11205
293;11207
293;11209
293;11211
294;11213
294;11215
293;11217
294;11219
294;11222
294;11224
294;11226
294;11228
294;11230
294;11232
294;11234
294;11236
294;11238
295;11240
294;11242
295;11244
295;11246
295;11248
295;11250
295;11252
295;11254
295;11256
295;11258
295;11260
295;11262
295;11264
295;11266
294;11268
295;11270
295;11272
295;11274
295;11276
295;11278
295;11280
296;11282
296;11284
296;11286
296;11288
297;11290
297;11292
297;11294
298;11296
298;11298
298;11300
299;11302
299;11304
300;11307
300;11309
300;11311
301;11313
301;11315
301;11317
302;11319
302;11321
302;11323
302;11325
302;11327
302;11329
302;11331
302;11333
302;11335
302;11337
303;11339
302;11341
302;11343
302;11345
301;11347
302;11350
301;11352
301;11354
301;11356
300;11358
300;11360
299;11362
299;11364
299;11366
299;11368
299;11370
298;11372
298;11374
298;11376
298;11378
297;11380
297;11382
297;11384
296;11386
296;11388
296;11390
296;11392
296;11394
296;11396
295;11398
295;11400
295;11402
295;11404
295;11406
294;11408
295;11410
294;11412
294;11414
294;11416
294;11418
294;11420
293;11422
293;11424
292;11426
291;11428
290;11430
289;11432
288;11435
288;11437
287;11439
288;11441
288;11443
290;11445
292;11447
296;11449
301;11451
307;11453
314;11455
321;11457
329;11459
337;11461
344;11463
351;11465
357;11467
361;11469
364;11471
366;11473
366;11475
365;11478
363;11480
361;11482
358;11484
356;11486
353;11488
350;11490
347;11492
344;11494
342;11496
338;11498
336;11500
333;11502
331;11504
328;11506
326;11508
323;11510
321;11512
319;11514
316;11516
314;11518
313;11520
311;11522
309;11524
307;11526
306;11528
304;11530
302;11532
300;11534
299;11536
297;11538
296;11540
295;11542
293;11544
292;11546
291;11548
290;11550
289;11552
288;11554
288;11556
287;11558
286;11560
286;11563
285;11565
284;11567
284;11569
283;11571
283;11573
282;11575
282;11577
281;11579
281;11581
281;11583
281;11585
281;11587
281;11589
281;11591
280;11593
281;11595
281;11597
280;11599
280;11601
280;11603
280;11606
280;11608
280;11610
281;11612
280;11614
281;11616
281;11618
281;11620
281;11622
281;11624
282;11626
282;11628
282;11630
282;11632
282;11634
283;11636
283;11638
283;11640
284;11642
284;11644
285;11646
285;11648
285;11650
286;11652
286;11654
286;11656
287;11658
288;11660
288;11662
288;11664
289;11666
289;11668
290;11670
291;11672
291;11674
292;11676
293;11678
294;11680
294;11682
295;11684
296;11686
297;11688
298;11691
299;11693
299;11695
300;11697
301;11699
302;11701
303;11703
304;11705
305;11707
305;11709
306;11711
307;11713
308;11715
309;11717
310;11719
310;11721
311;11723
312;11725
313;11727
313;11729
314;11731
314;11734
315;11736
315;11738
315;11740
315;11742
316;11744
315;11746
315;11748
315;11750
315;11752
315;11754
314;11756
313;11758
313;11760
312;11762
311;11764
310;11766
310;11768
308;11770
308;11772
307;11774
306;11776
305;11778
304;11780
303;11782
302;11784
301;11786
300;11788
299;11790
298;11792
298;11794
297;11796
296;11798
295;11800
294;11802
293;11804
292;11806
292;11808
291;11810
290;11812
290;11814
290;11816
289;11819
289;11821
288;11823
287;11825
287;11827
287;11829
286;11831
286;11833
286;11835
285;11837
286;11839
285;11841
285;11843
285;11845
285;11847
284;11849
284;11851
285;11853
284;11855
284;11857
284;11859
284;11862
284;11864
284;11866
284;11868
284;11870
284;11872
284;11874
284;11876
284;11878
284;11880
284;11882
284;11884
284;11886
284;11888
284;11890
284;11892
284;11894
284;11896
284;11898
284;11900
284;11902
285;11904
284;11906
285;11908
285;11910
285;11912
285;11914
285;11916
285;11918
286;11920
286;11922
286;11924
286;11926
286;11928
286;11930
286;11932
286;11934
286;11936
286;11938
287;11940
286;11942
286;11944
287;11947
287;11949
287;11951
287;11953
287;11955
287;11957
287;11959
287;11961
288;11963
288;11965
287;11967
288;11969
288;11971
288;11973
288;11975
288;11977
288;11979
288;11981
288;11983
288;11985
288;11987
288;11990
288;11992
288;11994
288;11996
288;11998
289;12000
289;12002
289;12004
289;12006
289;12008
289;12010
289;12012
289;12014
289;12016
289;12018
288;12020
289;12022
289;12024
289;12026
289;12028
289;12030
289;12032
289;12034
289;12036
289;12038
289;12040
289;12042
289;12044
289;12046
289;12048
289;12050
289;12052
289;12054
289;12056
289;12058
289;12060
289;12062
290;12064
289;12066
290;12068
290;12070
290;12072
290;12075
290;12077
290;12079
290;12081
290;12083
290;12085
290;12087
290;12089
290;12091
290;12093
290;12095
290;12097
290;12099
290;12101
290;12103
290;12105
290;12107
290;12109
290;12111
290;12113
290;12115
290;12118
290;12120
290;12122
290;12124
290;12126
290;12128
291;12130
291;12132
290;12134
290;12136
291;12138
290;12140
290;12142
290;12144
290;12146
291;12148
291;12150
291;12152
291;12154
291;12156
291;12158
291;12160
291;12162
291;12164
291;12166
292;12168
292;12170
291;12172
292;12174
292;12176
292;12178
291;12180
292;12182
292;12184
292;12186
291;12188
292;12190
291;12192
292;12194
292;12196
292;12198
292;12200
292;12203
293;12205
293;12207
293;12209
294;12211
294;12213
294;12215
295;12217
296;12219
296;12221
296;12223
297;12225
297;12227
298;12229
298;12231
298;12233
298;12235
298;12237
298;12239
298;12241
298;12243
298;12246
298;12248
298;12250
298;12252
298;12254
298;12256
297;12258
297;12260
297;12262
296;12264
296;12266
296;12268
295;12270
295;12272
295;12274
294;12276
294;12278
294;12280
293;12282
293;12284
293;12286
292;12288
292;12290
292;12292
292;12294
292;12296
291;12298
291;12300
291;12302
291;12304
290;12306
290;12308
290;12310
289;12312
289;12314
289;12316
289;12318
289;12320
289;12322
288;12324
288;12326
288;12328
288;12331
288;12333
288;12335
287;12337
286;12339
285;12341
283;12343
282;12345
282;12347
281;12349
281;12351
282;12353
283;12355
284;12357
288;12359
292;12361
297;12363
303;12365
311;12367
318;12369
326;12371
334;12374
340;12376
347;12378
352;12380
355;12382
357;12384
357;12386
356;12388
355;12390
353;12392
349;12394
346;12396
343;12398
340;12400
337;12402
334;12404
332;12406
329;12408
327;12410
324;12412
321;12414
320;12416
319;12418
316;12420
314;12422
312;12424
309;12426
307;12428
305;12430
304;12432
302;12434
300;12436
298;12438
297;12440
295;12442
293;12444
292;12446
291;12448
289;12450
288;12452
287;12454
287;12456
285;12459
285;12461
284;12463
283;12465
282;12467
282;12469
281;12471
280;12473
280;12475
279;12477
278;12479
278;12481
278;12483
278;12485
278;12487
277;12489
277;12491
277;12493
277;12495
277;12497
277;12499
277;12502
276;12504
277;12506
277;12508
277;12510
277;12512
277;12514
277;12516
277;12518
277;12520
277;12522
277;12524
278;12526
278;12528
278;12530
279;12532
279;12534
279;12536
279;12538
280;12540
280;12542
280;12544
281;12546
281;12548
281;12550
282;12552
282;12554
283;12556
283;12558
284;12560
284;12562
284;12564
285;12566
285;12568
286;12570
287;12572
287;12574
288;12576
289;12578
289;12580
290;12582
291;12584
291;12587
292;12589
293;12591
294;12593
295;12595
296;12597
297;12599
297;12601
298;12603
299;12605
300;12607
301;12609
302;12611
302;12613
303;12615
304;12617
305;12619
306;12621
307;12623
308;12625
309;12627
310;12630
310;12632
311;12634
312;12636
313;12638
313;12640
313;12642
314;12644
314;12646
315;12648
315;12650
315;12652
316;12654
316;12656
315;12658
315;12660
315;12662
315;12664
314;12666
314;12668
313;12670
313;12672
312;12674
311;12676
310;12678
309;12680
308;12682
307;12684
306;12686
305;12688
304;12690
303;12692
302;12694
301;12696
300;12698
299;12700
298;12702
297;12704
296;12706
296;12708
295;12710
294;12712
293;12715
292;12717
291;12719
291;12721
290;12723
289;12725
288;12727
287;12729
287;12731
286;12733
285;12735
285;12737
285;12739
285;12741
284;12743
284;12745
284;12747
284;12749
284;12751
284;12753
283;12755
283;12758
283;12760
283;12762
283;12764
282;12766
282;12768
282;12770
282;12772
282;12774
282;12776
282;12778
282;12780
282;12782
282;12784
282;12786
283;12788
282;12790
283;12792
283;12794
283;12796
283;12798
283;12800
283;12802
283;12804
283;12806
284;12808
283;12810
284;12812
284;12814
284;12816
284;12818
285;12820
285;12822
285;12824
285;12826
285;12828
285;12830
286;12832
286;12834
286;12836
286;12838
286;12840
286;12843
287;12845
286;12847
287;12849
287;12851
287;12853
287;12855
287;12857
287;12859
287;12861
288;12863
288;12865
288;12867
288;12869
288;12871
288;12873
288;12875
289;12877
288;12879
288;12881
289;12883
289;12886
288;12888
289;12890
289;12892
288;12894
289;12896
289;12898
289;12900
289;12902
289;12904
289;12906
289;12908
290;12910
290;12912
290;12914
290;12916
290;12918
290;12920
290;12922
290;12924
290;12926
290;12928
290;12930
290;12932
290;12934
290;12936
290;12938
290;12940
290;12942
290;12944
290;12946
291;12948
291;12950
291;12952
291;12954
291;12956
291;12958
291;12960
291;12962
291;12964
291;12966
291;12968
291;12971
291;12973
291;12975
291;12977
291;12979
291;12981
291;12983
291;12985
291;12987
291;12989
292;12991
292;12993
292;12995
292;12997
292;12999
292;13001
293;13003
293;13005
293;13007
293;13009
294;13011
294;13014
294;13016
295;13018
295;13020
295;13022
296;13024
296;13026
297;13028
297;13030
298;13032
298;13034
299;13036
299;13038
299;13040
299;13042
299;13044
299;13046
299;13048
299;13050
299;13052
300;13054
299;13056
300;13058
300;13060
299;13062
299;13064
299;13066
299;13068
299;13070
298;13072
298;13074
298;13076
298;13078
297;13080
297;13082
296;13084
296;13086
296;13088
295;13090
295;13092
295;13094
295;13096
295;13099
294;13101
294;13103
294;13105
294;13107
293;13109
293;13111
293;13113
293;13115
292;13117
292;13119
292;13121
292;13123
292;13125
292;13127
292;13129
292;13131
292;13133
292;13135
291;13137
291;13139
291;13142
291;13144
290;13146
289;13148
288;13150
287;13152
286;13154
285;13156
285;13158
286;13160
286;13162
288;13164
290;13166
293;13168
298;13170
303;13172
310;13174
317;13176
325;13178
333;13180
341;13182
345;13184
351;13186
357;13188
361;13190
364;13192
365;13194
365;13196
364;13198
363;13200
361;13202
358;13204
355;13206
352;13208
350;13210
347;13212
344;13214
341;13216
338;13218
336;13220
333;13222
330;13224
328;13227
325;13229
323;13231
320;13233
318;13235
316;13237
313;13239
311;13241
310;13243
307;13245
306;13247
304;13249
302;13251
301;13253
299;13255
297;13257
296;13259
295;13261
293;13263
292;13265
291;13267
290;13270
289;13272
288;13274
288;13276
287;13278
286;13280
285;13282
285;13284
284;13286
283;13288
283;13290
282;13292
282;13294
282;13296
281;13298
281;13300
281;13302
281;13304
280;13306
280;13308
280;13310
280;13312
280;13314
280;13316
280;13318
280;13320
280;13322
280;13324
280;13326
280;13328
280;13330
280;13332
281;13334
280;13336
281;13338
281;13340
281;13342
281;13344
282;13346
282;13348
282;13350
282;13352
283;13355
283;13357
283;13359
284;13361
284;13363
284;13365
285;13367
285;13369
286;13371
286;13373
286;13375
287;13377
287;13379
288;13381
288;13383
289;13385
289;13387
290;13389
290;13391
291;13393
292;13395
293;13398
294;13400
294;13402
295;13404
295;13406
297;13408
297;13410
298;13412
299;13414
299;13416
301;13418
302;13420
302;13422
303;13424
304;13426
305;13428
306;13430
306;13432
307;13434
308;13436
309;13438
309;13440
310;13442
311;13444
311;13446
312;13448
313;13450
313;13452
314;13454
314;13456
314;13458
314;13460
314;13462
314;13464
314;13466
314;13468
314;13470
313;13472
313;13474
312;13476
312;13478
311;13480
310;13483
309;13485
308;13487
307;13489
307;13491
306;13493
305;13495
304;13497
303;13499
302;13501
302;13503
301;13505
300;13507
299;13509
298;13511
297;13513
297;13515
296;13517
295;13519
295;13521
293;13523
293;13526
293;13528
292;13530
292;13532
291;13534
291;13536
290;13538
290;13540
289;13542
289;13544
289;13546
288;13548
288;13550
288;13552
287;13554
288;13556
287;13558
287;13560
288;13562
287;13564
287;13566
287;13568
287;13570
286;13572
286;13574
287;13576
286;13578
286;13580
286;13582
286;13584
286;13586
286;13588
286;13590
286;13592
286;13594
286;13596
286;13598
287;13600
287;13602
286;13604
287;13606
286;13608
287;13611
287;13613
287;13615
287;13617
287;13619
287;13621
287;13623
288;13625
287;13627
288;13629
288;13631
288;13633
288;13635
288;13637
288;13639
288;13641
289;13643
289;13645
288;13647
289;13649
289;13651
289;13654
289;13656
289;13658
289;13660
290;13662
289;13664
289;13666
290;13668
290;13670
290;13672
290;13674
290;13676
290;13678
290;13680
290;13682
290;13684
290;13686
290;13688
290;13690
290;13692
290;13694
290;13696
290;13698
290;13700
290;13702
290;13704
290;13706
290;13708
291;13710
290;13712
290;13714
291;13716
291;13718
291;13720
291;13722
291;13724
291;13726
291;13728
292;13730
291;13732
291;13734
292;13736
291;13739
292;13741
292;13743
291;13745
292;13747
292;13749
292;13751
292;13753
292;13755
292;13757
292;13759
292;13761
292;13763
292;13765
292;13767
292;13769
292;13771
292;13773
292;13775
292;13777
292;13779
292;13782
292;13784
292;13786
292;13788
292;13790
293;13792
292;13794
293;13796
293;13798
293;13800
293;13802
293;13804
293;13806
293;13808
293;13810
293;13812
293;13814
294;13816
294;13818
294;13820
294;13822
294;13824
294;13826
294;13828
294;13830
294;13832
295;13834
294;13836
295;13838
295;13840
295;13842
295;13844
295;13846
295;13848
295;13850
295;13852
295;13854
295;13856
296;13858
296;13860
295;13862
296;13864
296;13867
296;13869
296;13871
296;13873
296;13875
296;13877
296;13879
296;13881
296;13883
297;13885
296;13887
296;13889
296;13891
296;13893
296;13895
297;13897
296;13899
296;13901
297;13903
296;13905
297;13907
297;13910
297;13912
297;13914
297;13916
297;13918
297;13920
298;13922
297;13924
298;13926
298;13928
298;13930
298;13932
298;13934
298;13936
298;13938
298;13940
298;13942
298;13944
298;13946
298;13948
298;13950
298;13952
298;13954
298;13956
298;13958
298;13960
298;13962
298;13964
298;13966
298;13968
298;13970
298;13972
298;13974
298;13976
298;13978
298;13980
298;13982
298;13984
298;13986
298;13988
298;13990
299;13992
298;13995
299;13997
299;13999
299;14001
298;14003
299;14005
298;14007
299;14009
299;14011
299;14013
299;14015
299;14017
299;14019
299;14021
299;14023
299;14025
299;14027
299;14029
299;14031
299;14033
299;14035
299;14038
299;14040
299;14042
299;14044
299;14046
299;14048
299;14050
299;14052
299;14054
300;14056
300;14058
300;14060
300;14062
300;14064
300;14066
300;14068
300;14070
300;14072
300;14074
300;14076
300;14078
300;14080
300;14082
301;14084
301;14086
301;14088
301;14090
301;14092
301;14094
301;14096
301;14098
301;14100
301;14102
301;14104
301;14106
302;14108
302;14110
302;14112
302;14114
302;14116
302;14118
302;14120
303;14123
303;14125
303;14127
304;14129
304;14131
304;14133
305;14135
305;14137
306;14139
306;14141
307;14143
307;14145
308;14147
308;14149
308;14151
308;14153
308;14155
308;14157
309;14159
309;14161
309;14163
309;14166
309;14168
309;14170
309;14172
309;14174
309;14176
308;14178
308;14180
308;14182
307;14184
307;14186
307;14188
306;14190
306;14192
306;14194
305;14196
305;14198
305;14200
305;14202
305;14204
305;14206
305;14208
304;14210
304;14212
304;14214
304;14216
304;14218
304;14220
304;14222
304;14224
304;14226
304;14228
304;14230
304;14232
303;14234
304;14236
303;14238
303;14240
303;14242
303;14244
303;14246
302;14248
301;14251
300;14253
299;14255
298;14257
297;14259
297;14261
296;14263
297;14265
297;14267
299;14269
302;14271
305;14273
310;14275
316;14277
323;14279
330;14281
338;14283
345;14285
352;14287
358;14289
364;14291
367;14294
369;14296
370;14298
369;14300
367;14302
365;14304
362;14306
359;14308
356;14310
352;14312
349;14314
347;14316
344;14318
342;14320
339;14322
337;14324
334;14326
332;14328
330;14330
328;14332
326;14334
325;14336
323;14338
321;14340
319;14342
318;14344
316;14346
314;14348
313;14350
311;14352
310;14354
308;14356
307;14358
306;14360
304;14362
303;14364
302;14366
301;14368
300;14370
299;14372
298;14374
298;14376
297;14379
296;14381
295;14383
295;14385
294;14387
293;14389
293;14391
293;14393
292;14395
292;14397
291;14399
291;14401
291;14403
291;14405
290;14407
290;14409
290;14411
290;14413
290;14415
290;14417
290;14419
290;14422
290;14424
290;14426
290;14428
289;14430
290;14432
290;14434
290;14436
290;14438
291;14440
291;14442
291;14444
291;14446
291;14448
291;14450
292;14452
292;14454
292;14456
292;14458
292;14460
293;14462
293;14464
293;14466
293;14468
294;14470
294;14472
294;14474
295;14476
295;14478
295;14480
296;14482
297;14484
297;14486
298;14488
298;14490
298;14492
299;14494
300;14496
300;14498
301;14500
301;14502
302;14504
303;14507
303;14509
304;14511
305;14513
305;14515
306;14517
307;14519
308;14521
309;14523
309;14525
310;14527
311;14529
312;14531
313;14533
314;14535
315;14537
315;14539
316;14541
317;14543
317;14545
318;14547
319;14550
320;14552
320;14554
321;14556
322;14558
322;14560
322;14562
323;14564
323;14566
323;14568
323;14570
323;14572
322;14574
323;14576
322;14578
321;14580
321;14582
321;14584
320;14586
319;14588
318;14590
318;14592
317;14594
316;14596
315;14598
314;14600
312;14602
311;14604
310;14606
309;14608
308;14610
307;14612
306;14614
305;14616
304;14618
303;14620
302;14622
301;14624
300;14626
299;14628
298;14630
297;14632
296;14635
296;14637
295;14639
294;14641
294;14643
293;14645
292;14647
292;14649
291;14651
291;14653
290;14655
290;14657
290;14659
289;14661
289;14663
289;14665
288;14667
288;14669
288;14671
287;14673
287;14675
287;14678
286;14680
287;14682
286;14684
286;14686
286;14688
286;14690
286;14692
287;14694
286;14696
286;14698
287;14700
287;14702
286;14704
287;14706
286;14708
286;14710
287;14712
287;14714
286;14716
287;14718
287;14720
287;14722
286;14724
287;14726
287;14728
287;14730
287;14732
287;14734
287;14736
287;14738
287;14740
288;14742
288;14744
288;14746
288;14748
288;14750
288;14752
288;14754
288;14756
288;14758
288;14760
288;14763
289;14765
288;14767
288;14769
289;14771
289;14773
289;14775
289;14777
288;14779
288;14781
288;14783
288;14785
288;14787
289;14789
289;14791
289;14793
290;14795
291;14797
291;14799
291;14801
291;14803
291;14806
291;14808
292;14810
291;14812
292;14814
292;14816
292;14818
292;14820
292;14822
292;14824
292;14826
292;14828
292;14830
292;14832
291;14834
292;14836
291;14838
291;14840
291;14842
291;14844
291;14846
291;14848
292;14850
292;14852
292;14854
293;14856
292;14858
292;14860
292;14862
292;14864
292;14866
291;14868
291;14870
291;14872
292;14874
292;14876
292;14878
293;14880
293;14882
293;14884
292;14886
292;14888
292;14891
292;14893
293;14895
293;14897
293;14899
294;14901
293;14903
294;14905
294;14907
293;14909
294;14911
294;14913
294;14915
294;14917
295;14919
295;14921
295;14923
296;14925
296;14927
296;14929
297;14931
297;14934
297;14936
297;14938
298;14940
298;14942
299;14944
299;14946
300;14948
300;14950
301;14952
301;14954
302;14956
302;14958
302;14960
301;14962
301;14964
300;14966
300;14968
300;14970
299;14972
299;14974
299;14976
299;14978
299;14980
299;14982
299;14984
299;14986
299;14988
299;14990
299;14992
299;14994
299;14996
299;14998
299;15000
299;15002
299;15004
299;15006
299;15008
299;15010
298;15012
298;15014
298;15016
297;15019
297;15021
297;15023
297;15025
296;15027
296;15029
296;15031
296;15033
295;15035
295;15037
295;15039
294;15041
294;15043
294;15045
294;15047
294;15049
294;15051
294;15053
293;15055
292;15057
291;15059
291;15062
290;15064
289;15066
289;15068
289;15070
290;15072
291;15074
292;15076
295;15078
298;15080
301;15082
306;15084
312;15086
318;15088
325;15090
332;15092
338;15094
345;15096
350;15098
354;15100
357;15102
358;15104
358;15106
357;15108
356;15110
354;15112
352;15114
349;15116
345;15118
343;15120
339;15122
336;15124
333;15126
331;15128
328;15130
326;15132
324;15134
322;15136
321;15138
319;15140
317;15142
315;15144
313;15147
311;15149
310;15151
308;15153
306;15155
305;15157
304;15159
303;15161
302;15163
301;15165
300;15167
298;15169
297;15171
296;15173
294;15175
293;15177
293;15179
292;15181
291;15183
291;15185
290;15187
289;15190
289;15192
289;15194
289;15196
289;15198
288;15200
288;15202
288;15204
287;15206
286;15208
286;15210
285;15212
285;15214
285;15216
285;15218
286;15220
286;15222
286;15224
286;15226
287;15228
287;15230
287;15232
287;15234
287;15236
286;15238
286;15240
286;15242
286;15244
286;15246
286;15248
287;15250
287;15252
288;15254
288;15256
289;15258
289;15260
289;15262
290;15264
290;15266
290;15268
291;15270
291;15272
291;15275
292;15277
292;15279
292;15281
293;15283
293;15285
294;15287
294;15289
294;15291
294;15293
295;15295
295;15297
296;15299
297;15301
298;15303
299;15305
300;15307
301;15309
301;15311
302;15313
303;15315
303;15318
304;15320
304;15322
305;15324
306;15326
307;15328
307;15330
308;15332
310;15334
311;15336
311;15338
312;15340
313;15342
314;15344
315;15346
316;15348
316;15350
318;15352
318;15354
319;15356
319;15358
319;15360
319;15362
320;15364
320;15366
319;15368
320;15370
320;15372
320;15374
320;15376
320;15378
320;15380
320;15382
319;15384
318;15386
318;15388
317;15390
316;15392
314;15394
314;15396
312;15398
311;15400
310;15403
309;15405
308;15407
307;15409
306;15411
305;15413
304;15415
303;15417
302;15419
301;15421
300;15423
299;15425
299;15427
298;15429
296;15431
296;15433
295;15435
294;15437
293;15439
292;15441
292;15443
291;15446
290;15448
290;15450
290;15452
289;15454
288;15456
288;15458
288;15460
287;15462
287;15464
286;15466
286;15468
286;15470
285;15472
285;15474
285;15476
285;15478
285;15480
285;15482
284;15484
284;15486
284;15488
284;15490
284;15492
284;15494
284;15496
284;15498
284;15500
284;15502
284;15504
284;15506
284;15508
284;15510
284;15512
284;15514
284;15516
285;15518
284;15520
284;15522
285;15524
284;15526
284;15528
285;15531
285;15533
285;15535
285;15537
285;15539
285;15541
286;15543
286;15545
286;15547
287;15549
287;15551
287;15553
288;15555
288;15557
287;15559
288;15561
288;15563
288;15565
288;15567
288;15569
288;15571
288;15574
288;15576
288;15578
288;15580
289;15582
289;15584
289;15586
289;15588
290;15590
289;15592
290;15594
290;15596
290;15598
290;15600
290;15602
290;15604
290;15606
291;15608
290;15610
290;15612
291;15614
291;15616
290;15618
291;15620
291;15622
291;15624
291;15626
291;15628
291;15630
291;15632
291;15634
291;15636
291;15638
291;15640
291;15642
291;15644
292;15646
291;15648
291;15650
291;15652
291;15654
291;15656
291;15659
291;15661
291;15663
292;15665
291;15667
292;15669
292;15671
292;15673
292;15675
292;15677
292;15679
292;15681
292;15683
292;15685
292;15687
292;15689
292;15691
292;15693
292;15695
293;15697
293;15699
294;15702
294;15704
294;15706
295;15708
295;15710
296;15712
296;15714
297;15716
297;15718
298;15720
298;15722
298;15724
299;15726
299;15728
299;15730
299;15732
299;15734
299;15736
299;15738
299;15740
299;15742
299;15744
299;15746
300;15748
300;15750
300;15752
300;15754
300;15756
300;15758
299;15760
299;15762
299;15764
298;15766
298;15768
298;15770
298;15772
297;15774
297;15776
297;15778
296;15780
296;15782
296;15784
295;15787
295;15789
294;15791
295;15793
294;15795
294;15797
294;15799
293;15801
293;15803
293;15805
293;15807
292;15809
293;15811
292;15813
292;15815
292;15817
292;15819
292;15821
292;15823
292;15825
292;15827
292;15830
291;15832
291;15834
290;15836
289;15838
289;15840
288;15842
287;15844
286;15846
286;15848
286;15850
286;15852
288;15854
289;15856
292;15858
297;15860
301;15862
307;15864
314;15866
321;15868
329;15870
333;15872
340;15874
347;15876
353;15878
358;15880
361;15882
363;15884
363;15886
362;15888
361;15890
359;15892
356;15894
353;15896
350;15898
347;15900
344;15902
342;15904
339;15906
336;15908
334;15910
331;15912
328;15915
326;15917
323;15919
321;15921
319;15923
317;15925
314;15927
312;15929
310;15931
308;15933
306;15935
305;15937
303;15939
301;15941
299;15943
297;15945
296;15947
294;15949
293;15951
292;15953
291;15955
290;15958
289;15960
288;15962
287;15964
286;15966
285;15968
284;15970
283;15972
283;15974
283;15976
282;15978
282;15980
281;15982
281;15984
281;15986
280;15988
280;15990
280;15992
280;15994
280;15996
280;15998
280;16000
280;16002
279;16004
279;16006
279;16008
279;16010
279;16012
280;16014
279;16016
280;16018
280;16020
280;16022
280;16024
280;16026
280;16028
281;16030
281;16032
281;16034
281;16036
281;16038
282;16040
282;16043
282;16045
282;16047
282;16049
282;16051
282;16053
282;16055
283;16057
283;16059
284;16061
284;16063
285;16065
285;16067
286;16069
286;16071
287;16073
288;16075
289;16077
290;16079
290;16081
291;16083
292;16086
293;16088
293;16090
294;16092
295;16094
296;16096
296;16098
297;16100
298;16102
299;16104
300;16106
301;16108
302;16110
302;16112
303;16114
304;16116
305;16118
306;16120
307;16122
308;16124
309;16126
309;16128
309;16130
310;16132
311;16134
312;16136
312;16138
313;16140
313;16142
314;16144
314;16146
315;16148
315;16150
315;16152
315;16154
315;16156
315;16158
315;16160
314;16162
314;16164
313;16166
313;16168
312;16171
311;16173
310;16175
310;16177
309;16179
308;16181
307;16183
306;16185
304;16187
303;16189
302;16191
300;16193
299;16195
298;16197
297;16199
296;16201
296;16203
294;16205
293;16207
293;16209
292;16211
291;16214
291;16216
291;16218
290;16220
290;16222
290;16224
289;16226
289;16228
289;16230
288;16232
288;16234
288;16236
288;16238
287;16240
287;16242
287;16244
287;16246
287;16248
286;16250
286;16252
286;16254
286;16256
285;16258
286;16260
285;16262
285;16264
285;16266
285;16268
285;16270
285;16272
285;16274
285;16276
285;16278
285;16280
285;16282
284;16284
284;16286
284;16288
284;16290
284;16292
284;16294
284;16296
284;16299
285;16301
284;16303
284;16305
284;16307
284;16309
284;16311
285;16313
285;16315
286;16317
286;16319
287;16321
287;16323
287;16325
287;16327
287;16329
287;16331
287;16333
287;16335
287;16337
287;16339
287;16342
288;16344
287;16346
287;16348
287;16350
287;16352
287;16354
287;16356
287;16358
287;16360
287;16362
287;16364
287;16366
287;16368
288;16370
288;16372
288;16374
288;16376
289;16378
289;16380
289;16382
289;16384
289;16386
289;16388
290;16390
290;16392
290;16394
291;16396
290;16398
291;16400
291;16402
291;16404
291;16406
291;16408
291;16410
291;16412
291;16414
291;16416
291;16418
291;16420
291;16422
291;16424
292;16427
291;16429
292;16431
292;16433
292;16435
292;16437
292;16439
292;16441
292;16443
292;16445
291;16447
291;16449
292;16451
291;16453
291;16455
291;16457
291;16459
291;16461
291;16463
291;16465
290;16467
290;16470
291;16472
291;16474
291;16476
291;16478
291;16480
292;16482
292;16484
292;16486
293;16488
293;16490
294;16492
293;16494
294;16496
294;16498
294;16500
294;16502
295;16504
294;16506
294;16508
295;16510
295;16512
294;16514
295;16516
295;16518
295;16520
295;16522
295;16524
295;16526
295;16528
295;16530
295;16532
295;16534
295;16536
295;16538
295;16540
295;16542
295;16544
295;16546
295;16548
295;16550
295;16552
295;16555
295;16557
295;16559
295;16561
295;16563
295;16565
295;16567
296;16569
295;16571
295;16573
296;16575
296;16577
296;16579
296;16581
296;16583
296;16585
296;16587
295;16589
296;16591
296;16593
296;16595
296;16598
296;16600
296;16602
296;16604
296;16606
295;16608
295;16610
295;16612
295;16614
295;16616
295;16618
296;16620
296;16622
296;16624
296;16626
296;16628
296;16630
296;16632
297;16634
297;16636
297;16638
296;16640
297;16642
297;16644
296;16646
296;16648
296;16650
296;16652
297;16654
296;16656
296;16658
297;16660
297;16662
296;16664
297;16666
297;16668
296;16670
297;16672
297;16674
296;16676
297;16678
297;16680
296;16683
296;16685
297;16687
296;16689
296;16691
296;16693
296;16695
296;16697
296;16699
296;16701
296;16703
296;16705
296;16707
296;16709
296;16711
297;16713
297;16715
297;16717
297;16719
297;16721
297;16723
297;16726
296;16728
296;16730
296;16732
296;16734
296;16736
296;16738
296;16740
296;16742
296;16744
296;16746
296;16748
296;16750
296;16752
296;16754
296;16756
296;16758
296;16760
296;16762
297;16764
297;16766
297;16768
297;16770
297;16772
297;16774
297;16776
298;16778
297;16780
297;16782
297;16784
296;16786
296;16788
296;16790
295;16792
295;16794
294;16796
294;16798
294;16800
295;16802
295;16804
295;16806
296;16808
297;16811
297;16813
297;16815
297;16817
298;16819
298;16821
298;16823
298;16825
298;16827
298;16829
298;16831
298;16833
298;16835
299;16837
299;16839
299;16841
299;16843
299;16845
300;16847
300;16849
300;16851
300;16854
300;16856
301;16858
302;16860
302;16862
303;16864
303;16866
303;16868
304;16870
304;16872
304;16874
304;16876
304;16878
304;16880
304;16882
304;16884
303;16886
304;16888
303;16890
303;16892
303;16894
303;16896
302;16898
302;16900
302;16902
302;16904
302;16906
301;16908
301;16910
300;16912
300;16914
300;16916
299;16918
299;16920
299;16922
299;16924
299;16926
298;16928
298;16930
298;16932
298;16934
297;16936
297;16939
297;16941
297;16943
297;16945
296;16947
296;16949
296;16951
296;16953
295;16955
295;16957
295;16959
295;16961
295;16963
294;16965
294;16967
293;16969
293;16971
292;16973
290;16975
289;16977
288;16979
288;16982
287;16984
287;16986
287;16988
288;16990
290;16992
292;16994
296;16996
301;16998
307;17000
314;17002
323;17004
331;17006
338;17008
346;17010
353;17012
359;17014
363;17016
367;17018
368;17020
367;17022
367;17024
365;17026
363;17028
361;17030
357;17032
354;17034
351;17036
349;17038
345;17040
343;17042
340;17044
337;17046
334;17048
331;17050
328;17052
326;17054
323;17056
321;17058
318;17060
316;17062
314;17064
312;17067
310;17069
308;17071
306;17073
304;17075
302;17077
301;17079
299;17081
298;17083
296;17085
295;17087
293;17089
292;17091
291;17093
290;17095
289;17097
288;17099
287;17101
286;17103
285;17105
285;17107
284;17110
283;17112
283;17114
282;17116
281;17118
281;17120
281;17122
280;17124
280;17126
280;17128
279;17130
279;17132
279;17134
278;17136
278;17138
278;17140
279;17142
278;17144
279;17146
278;17148
278;17150
278;17152
278;17154
278;17156
279;17158
279;17160
279;17162
279;17164
279;17166
279;17168
280;17170
280;17172
280;17174
280;17176
280;17178
281;17180
281;17182
281;17184
281;17186
282;17188
282;17190
283;17192
283;17195
283;17197
284;17199
284;17201
285;17203
285;17205
285;17207
286;17209
287;17211
287;17213
288;17215
288;17217
289;17219
289;17221
290;17223
291;17225
291;17227
292;17229
293;17231
294;17233
295;17235
295;17238
296;17240
297;17242
298;17244
299;17246
300;17248
301;17250
301;17252
303;17254
303;17256
304;17258
305;17260
306;17262
307;17264
308;17266
309;17268
309;17270
311;17272
312;17274
312;17276
313;17278
313;17280
314;17282
314;17284
315;17286
316;17288
316;17290
316;17292
316;17294
316;17296
316;17298
316;17300
316;17302
315;17304
315;17306
314;17308
314;17310
313;17312
313;17314
311;17316
311;17318
310;17320
309;17323
308;17325
307;17327
306;17329
305;17331
303;17333
302;17335
301;17337
300;17339
299;17341
298;17343
297;17345
296;17347
295;17349
294;17351
293;17353
292;17355
291;17357
290;17359
290;17361
289;17363
289;17366
288;17368
287;17370
287;17372
287;17374
286;17376
286;17378
285;17380
285;17382
285;17384
285;17386
284;17388
284;17390
283;17392
283;17394
283;17396
283;17398
282;17400
282;17402
283;17404
282;17406
282;17408
282;17410
282;17412
282;17414
282;17416
282;17418
282;17420
282;17422
282;17424
282;17426
282;17428
282;17430
283;17432
282;17434
282;17436
283;17438
283;17440
283;17442
283;17444
283;17446
283;17448
283;17451
283;17453
283;17455
283;17457
284;17459
284;17461
284;17463
284;17465
284;17467
284;17469
284;17471
284;17473
284;17475
284;17477
284;17479
285;17481
284;17483
284;17485
285;17487
285;17489
285;17491
285;17494
285;17496
285;17498
285;17500
285;17502
285;17504
285;17506
286;17508
286;17510
285;17512
286;17514
286;17516
286;17518
286;17520
286;17522
286;17524
286;17526
286;17528
286;17530
286;17532
286;17534
286;17536
287;17538
286;17540
287;17542
287;17544
287;17546
287;17548
287;17550
287;17552
287;17554
287;17556
288;17558
288;17560
288;17562
288;17564
288;17566
288;17568
288;17570
288;17572
288;17574
288;17576
288;17579
289;17581
288;17583
289;17585
289;17587
289;17589
289;17591
289;17593
289;17595
289;17597
289;17599
290;17601
290;17603
290;17605
290;17607
290;17609
290;17611
290;17613
290;17615
290;17617
290;17619
291;17622
290;17624
290;17626
291;17628
291;17630
291;17632
291;17634
291;17636
291;17638
291;17640
291;17642
291;17644
291;17646
291;17648
291;17650
292;17652
292;17654
292;17656
292;17658
292;17660
292;17662
292;17664
292;17666
293;17668
293;17670
293;17672
293;17674
293;17676
294;17678
294;17680
294;17682
295;17684
295;17686
296;17688
296;17690
296;17692
297;17694
297;17696
298;17698
299;17700
299;17702
300;17704
300;17707
300;17709
300;17711
301;17713
301;17715
300;17717
301;17719
301;17721
301;17723
301;17725
301;17727
301;17729
301;17731
300;17733
301;17735
300;17737
300;17739
300;17741
299;17743
299;17745
299;17747
298;17750
298;17752
298;17754
297;17756
297;17758
297;17760
297;17762
296;17764
296;17766
296;17768
295;17770
296;17772
295;17774
295;17776
295;17778
294;17780
294;17782
294;17784
294;17786
294;17788
294;17790
294;17792
293;17794
293;17796
293;17798
293;17800
293;17802
293;17804
293;17806
292;17808
292;17810
291;17812
290;17814
289;17816
288;17818
287;17820
286;17822
286;17824
287;17826
287;17828
288;17830
291;17832
295;17835
300;17837
305;17839
312;17841
319;17843
327;17845
336;17847
343;17849
350;17851
356;17853
361;17855
364;17857
365;17859
366;17861
365;17863
363;17865
360;17867
358;17869
355;17871
352;17873
349;17875
346;17878
343;17880
341;17882
338;17884
335;17886
332;17888
330;17890
327;17892
325;17894
322;17896
320;17898
318;17900
316;17902
314;17904
312;17906
310;17908
308;17910
306;17912
304;17914
303;17916
301;17918
300;17920
298;17922
297;17924
296;17926
295;17928
293;17930
292;17932
291;17934
290;17936
289;17938
288;17940
287;17942
286;17944
286;17946
285;17948
285;17950
284;17952
284;17954
283;17956
283;17958
282;17960
282;17963
282;17965
281;17967
281;17969
281;17971
281;17973
281;17975
281;17977
281;17979
281;17981
281;17983
281;17985
280;17987
281;17989
281;17991
281;17993
281;17995
281;17997
281;17999
281;18001
281;18003
282;18006
282;18008
282;18010
283;18012
283;18014
283;18016
283;18018
283;18020
284;18022
284;18024
285;18026
285;18028
285;18030
286;18032
286;18034
286;18036
287;18038
287;18040
288;18042
288;18044
289;18046
289;18048
289;18050
290;18052
291;18054
291;18056
292;18058
293;18060
293;18062
294;18064
295;18066
295;18068
296;18070
297;18072
297;18074
298;18076
299;18078
300;18080
301;18082
302;18084
303;18086
303;18088
305;18091
305;18093
306;18095
307;18097
308;18099
309;18101
310;18103
311;18105
311;18107
312;18109
313;18111
313;18113
314;18115
315;18117
315;18119
316;18121
316;18123
316;18125
316;18127
316;18129
316;18131
316;18134
316;18136
316;18138
315;18140
315;18142
314;18144
313;18146
313;18148
311;18150
311;18152
310;18154
309;18156
308;18158
307;18160
306;18162
305;18164
304;18166
303;18168
302;18170
300;18172
300;18174
299;18176
298;18178
297;18180
296;18182
296;18184
295;18186
294;18188
293;18190
292;18192
292;18194
291;18196
290;18198
290;18200
289;18202
288;18204
288;18206
288;18208
287;18210
287;18212
287;18214
286;18216
286;18219
286;18221
285;18223
285;18225
285;18227
285;18229
284;18231
284;18233
284;18235
284;18237
284;18239
284;18241
284;18243
284;18245
284;18247
284;18249
284;18251
284;18253
284;18255
284;18257
284;18259
284;18262
284;18264
284;18266
284;18268
284;18270
284;18272
284;18274
284;18276
284;18278
285;18280
285;18282
285;18284
285;18286
285;18288
285;18290
285;18292
285;18294
285;18296
286;18298
286;18300
286;18302
286;18304
286;18306
286;18308
286;18310
287;18312
286;18314
287;18316
287;18318
287;18320
287;18322
287;18324
287;18326
287;18328
287;18330
287;18332
287;18334
287;18336
288;18338
288;18340
288;18342
288;18344
288;18347
288;18349
288;18351
288;18353
289;18355
288;18357
289;18359
289;18361
289;18363
289;18365
289;18367
289;18369
289;18371
290;18373
290;18375
289;18377
290;18379
290;18381
290;18383
290;18385
290;18387
290;18390
290;18392
290;18394
290;18396
290;18398
290;18400
291;18402
291;18404
290;18406
291;18408
291;18410
291;18412
291;18414
291;18416
291;18418
292;18420
291;18422
291;18424
291;18426
292;18428
292;18430
292;18432
292;18434
292;18436
292;18438
292;18440
292;18442
292;18444
292;18446
292;18448
292;18450
292;18452
292;18454
293;18456
293;18458
293;18460
293;18462
293;18464
293;18466
293;18468
293;18470
293;18472
293;18475
294;18477
293;18479
294;18481
294;18483
294;18485
294;18487
294;18489
294;18491
294;18493
294;18495
294;18497
294;18499
294;18501
294;18503
294;18505
294;18507
295;18509
294;18511
295;18513
295;18515
295;18518
296;18520
296;18522
296;18524
296;18526
297;18528
297;18530
297;18532
298;18534
298;18536
298;18538
299;18540
299;18542
300;18544
300;18546
301;18548
301;18550
302;18552
301;18554
302;18556
302;18558
302;18560
302;18562
302;18564
302;18566
302;18568
302;18570
302;18572
302;18574
301;18576
302;18578
302;18580
301;18582
301;18584
301;18586
300;18588
300;18590
300;18592
300;18594
299;18596
299;18598
299;18600
298;18603
298;18605
298;18607
298;18609
297;18611
297;18613
297;18615
297;18617
296;18619
296;18621
296;18623
296;18625
296;18627
295;18629
295;18631
295;18633
295;18635
295;18637
294;18639
294;18641
294;18643
294;18646
294;18648
294;18650
294;18652
294;18654
294;18656
293;18658
292;18660
291;18662
290;18664
289;18666
288;18668
287;18670
287;18672
287;18674
288;18676
289;18678
292;18680
295;18682
299;18684
305;18686
308;18688
315;18690
322;18692
331;18694
338;18696
346;18698
353;18700
359;18702
363;18704
367;18706
368;18708
368;18710
367;18712
366;18714
364;18716
361;18718
358;18720
356;18722
353;18724
350;18726
347;18728
345;18731
342;18733
339;18735
336;18737
334;18739
331;18741
328;18743
326;18745
323;18747
321;18749
319;18751
317;18753
314;18755
313;18757
311;18759
308;18761
307;18763
305;18765
303;18767
302;18769
300;18771
299;18774
297;18776
296;18778
295;18780
294;18782
293;18784
291;18786
290;18788
289;18790
288;18792
288;18794
287;18796
286;18798
285;18800
285;18802
284;18804
284;18806
283;18808
282;18810
282;18812
282;18814
281;18816
281;18818
281;18820
281;18822
280;18824
280;18826
280;18828
280;18830
280;18832
280;18834
280;18836
280;18838
280;18840
280;18842
280;18844
280;18846
280;18848
280;18850
280;18852
280;18854
280;18856
280;18859
281;18861
281;18863
281;18865
281;18867
281;18869
282;18871
282;18873
282;18875
282;18877
283;18879
283;18881
284;18883
284;18885
284;18887
285;18889
285;18891
285;18893
286;18895
286;18897
287;18899
288;18902
288;18904
289;18906
289;18908
290;18910
291;18912
291;18914
292;18916
293;18918
294;18920
295;18922
296;18924
296;18926
298;18928
298;18930
299;18932
300;18934
301;18936
302;18938
303;18940
304;18942
305;18944
306;18946
307;18948
307;18950
308;18952
309;18954
310;18956
311;18958
312;18960
312;18962
313;18964
314;18966
314;18968
314;18970
315;18972
315;18974
315;18976
316;18978
316;18980
316;18982
316;18984
315;18987
315;18989
314;18991
313;18993
313;18995
312;18997
311;18999
310;19001
310;19003
308;19005
308;19007
307;19009
305;19011
305;19013
303;19015
303;19017
302;19019
300;19021
299;19023
299;19025
297;19027
297;19030
296;19032
294;19034
294;19036
293;19038
292;19040
292;19042
291;19044
290;19046
290;19048
289;19050
288;19052
288;19054
287;19056
287;19058
287;19060
286;19062
286;19064
285;19066
285;19068
284;19070
285;19072
284;19074
284;19076
284;19078
284;19080
283;19082
283;19084
283;19086
283;19088
283;19090
283;19092
283;19094
283;19096
283;19098
283;19100
283;19102
283;19104
283;19106
283;19108
283;19110
283;19112
283;19115
283;19117
283;19119
283;19121
283;19123
283;19125
284;19127
284;19129
283;19131
284;19133
284;19135
284;19137
284;19139
284;19141
284;19143
284;19145
284;19147
284;19149
285;19151
284;19153
285;19155
285;19158
285;19160
285;19162
285;19164
285;19166
285;19168
285;19170
285;19172
285;19174
285;19176
285;19178
285;19180
286;19182
285;19184
286;19186
286;19188
286;19190
286;19192
286;19194
286;19196
286;19198
286;19200
286;19202
286;19204
287;19206
287;19208
286;19210
287;19212
287;19214
287;19216
287;19218
287;19220
287;19222
287;19224
287;19226
287;19228
287;19230
287;19232
287;19234
288;19236
288;19238
288;19240
288;19243
288;19245
288;19247
288;19249
288;19251
288;19253
289;19255
289;19257
288;19259
289;19261
289;19263
289;19265
289;19267
289;19269
289;19271
289;19273
289;19275
289;19277
289;19279
290;19281
290;19283
290;19286
290;19288
290;19290
290;19292
290;19294
290;19296
290;19298
291;19300
291;19302
291;19304
291;19306
291;19308
291;19310
291;19312
291;19314
291;19316
291;19318
291;19320
292;19322
292;19324
292;19326
292;19328
292;19330
292;19332
292;19334
292;19336
292;19338
292;19340
292;19342
292;19344
292;19346
292;19348
293;19350
293;19352
293;19354
293;19356
293;19358
293;19360
293;19362
293;19364
293;19366
293;19368
293;19371
293;19373
293;19375
293;19377
293;19379
294;19381
293;19383
293;19385
294;19387
293;19389
294;19391
294;19393
294;19395
294;19397
294;19399
294;19401
294;19403
294;19405
294;19407
294;19409
294;19411
294;19414
295;19416
295;19418
295;19420
295;19422
295;19424
295;19426
295;19428
295;19430
295;19432
295;19434
295;19436
295;19438
295;19440
295;19442
295;19444
295;19446
295;19448
295;19450
295;19452
295;19454
295;19456
295;19458
296;19460
295;19462
296;19464
296;19466
295;19468
296;19470
296;19472
296;19474
296;19476
296;19478
296;19480
296;19482
296;19484
296;19486
296;19488
296;19490
296;19492
296;19494
296;19496
296;19499
296;19501
296;19503
296;19505
296;19507
296;19509
296;19511
296;19513
296;19515
297;19517
297;19519
297;19521
297;19523
297;19525
297;19527
297;19529
296;19531
296;19533
297;19535
297;19537
297;19539
297;19542
297;19544
296;19546
297;19548
297;19550
297;19552
297;19554
297;19556
297;19558
298;19560
298;19562
298;19564
298;19566
298;19568
298;19570
298;19572
299;19574
299;19576
300;19578
301;19580
301;19582
301;19584
302;19586
303;19588
302;19590
303;19592
303;19594
303;19596
303;19598
303;19600
303;19602
304;19604
304;19606
304;19608
303;19610
304;19612
304;19614
303;19616
303;19618
303;19620
303;19622
303;19624
302;19627
302;19629
302;19631
301;19633
301;19635
301;19637
300;19639
300;19641
300;19643
299;19645
299;19647
299;19649
298;19651
298;19653
298;19655
297;19657
297;19659
297;19661
297;19663
297;19665
297;19667
296;19670
296;19672
296;19674
296;19676
295;19678
295;19680
296;19682
295;19684
295;19686
295;19688
295;19690
294;19692
293;19694
292;19696
291;19698
290;19700
289;19702
288;19704
288;19706
287;19708
288;19710
288;19712
289;19714
291;19716
295;19718
299;19720
304;19722
311;19724
319;19726
327;19728
334;19730
342;19732
349;19734
355;19736
360;19738
364;19740
365;19742
366;19744
365;19746
363;19748
361;19750
358;19752
355;19755
352;19757
349;19759
346;19761
343;19763
341;19765
338;19767
335;19769
333;19771
330;19773
328;19775
325;19777
323;19779
321;19781
319;19783
316;19785
314;19787
312;19789
310;19791
308;19793
307;19795
305;19798
303;19800
302;19802
300;19804
299;19806
297;19808
296;19810
295;19812
294;19814
292;19816
292;19818
291;19820
290;19822
289;19824
288;19826
287;19828
287;19830
286;19832
285;19834
285;19836
284;19838
284;19840
284;19842
283;19844
283;19846
283;19848
282;19850
282;19852
282;19854
282;19856
281;19858
282;19860
281;19862
281;19864
281;19866
281;19868
281;19870
281;19872
281;19874
281;19876
281;19878
281;19880
282;19883
282;19885
282;19887
282;19889
282;19891
282;19893
283;19895
283;19897
283;19899
284;19901
284;19903
284;19905
284;19907
284;19909
285;19911
285;19913
286;19915
286;19917
286;19919
287;19921
287;19923
288;19926
288;19928
289;19930
289;19932
290;19934
290;19936
290;19938
291;19940
292;19942
293;19944
293;19946
294;19948
295;19950
295;19952
296;19954
297;19956
297;19958
298;19960
299;19962
300;19964
301;19966
301;19968
303;19970
303;19972
304;19974
305;19976
305;19978
307;19980
307;19982
308;19984
309;19986
310;19988
311;19990
312;19992
312;19994
313;19996
314;19998
314;20000
315;20002
316;20004
316;20006
316;20008
317;20011
317;20013
317;20015
317;20017
317;20019
317;20021
317;20023
317;20025
316;20027
316;20029
315;20031
314;20033
314;20035
313;20037
312;20039
311;20041
311;20043
309;20045
309;20047
307;20049
306;20051
305;20054
304;20056
303;20058
302;20060
301;20062
300;20064
300;20066
298;20068
297;20070
297;20072
296;20074
295;20076
294;20078
293;20080
292;20082
292;20084
291;20086
291;20088
290;20090
289;20092
289;20094
289;20096
288;20098
287;20100
287;20102
287;20104
286;20106
286;20108
286;20110
286;20112
286;20114
285;20116
285;20118
285;20120
285;20122
285;20124
285;20126
285;20128
284;20130
284;20132
284;20134
284;20136
284;20139
284;20141
284;20143
284;20145
285;20147
284;20149
284;20151
285;20153
284;20155
285;20157
285;20159
285;20161
285;20163
285;20165
285;20167
285;20169
285;20171
285;20173
285;20175
286;20177
286;20179
286;20182
286;20184
286;20186
286;20188
286;20190
287;20192
286;20194
287;20196
287;20198
287;20200
287;20202
287;20204
287;20206
287;20208
287;20210
287;20212
287;20214
288;20216
287;20218
288;20220
288;20222
288;20224
287;20226
288;20228
288;20230
288;20232
288;20234
288;20236
288;20238
288;20240
288;20242
288;20244
288;20246
289;20248
288;20250
288;20252
289;20254
288;20256
289;20258
289;20260
289;20262
289;20264
289;20267
289;20269
289;20271
289;20273
289;20275
289;20277
289;20279
289;20281
290;20283
290;20285
290;20287
290;20289
290;20291
290;20293
290;20295
290;20297
290;20299
290;20301
290;20303
290;20305
290;20307
290;20310
290;20312
291;20314
291;20316
291;20318
291;20320
291;20322
291;20324
291;20326
291;20328
291;20330
291;20332
291;20334
291;20336
292;20338
292;20340
292;20342
292;20344
292;20346
292;20348
292;20350
292;20352
292;20354
292;20356
293;20358
292;20360
292;20362
293;20364
293;20366
293;20368
293;20370
293;20372
293;20374
293;20376
293;20378
293;20380
293;20382
293;20384
294;20386
294;20388
294;20390
294;20392
294;20395
294;20397
294;20399
294;20401
294;20403
294;20405
295;20407
294;20409
294;20411
294;20413
295;20415
294;20417
295;20419
295;20421
295;20423
295;20425
295;20427
295;20429
295;20431
295;20433
295;20435
295;20438
296;20440
296;20442
296;20444
297;20446
297;20448
297;20450
297;20452
297;20454
298;20456
298;20458
298;20460
299;20462
300;20464
300;20466
301;20468
302;20470
302;20472
302;20474
302;20476
303;20478
303;20480
302;20482
303;20484
303;20486
303;20488
303;20490
303;20492
303;20494
303;20496
303;20498
302;20500
302;20502
302;20504
302;20506
302;20508
301;20510
301;20512
301;20514
301;20516
300;20518
300;20520
300;20523
299;20525
299;20527
299;20529
298;20531
298;20533
298;20535
297;20537
297;20539
297;20541
297;20543
296;20545
296;20547
296;20549
296;20551
296;20553
296;20555
295;20557
295;20559
295;20561
295;20563
295;20566
295;20568
294;20570
294;20572
295;20574
294;20576
294;20578
293;20580
292;20582
292;20584
290;20586
289;20588
288;20590
288;20592
287;20594
287;20596
288;20598
288;20600
290;20602
294;20604
297;20606
300;20608
306;20610
313;20612
320;20614
327;20616
336;20618
343;20620
350;20622
357;20624
362;20626
365;20628
367;20630
367;20632
366;20634
365;20636
363;20638
360;20640
358;20642
355;20644
352;20646
349;20648
347;20651
344;20653
341;20655
338;20657
335;20659
332;20661
330;20663
327;20665
325;20667
322;20669
320;20671
317;20673
315;20675
313;20677
311;20679
309;20681
307;20683
305;20685
303;20687
302;20689
300;20691
299;20694
297;20696
296;20698
294;20700
293;20702
292;20704
291;20706
290;20708
289;20710
288;20712
287;20714
286;20716
286;20718
285;20720
284;20722
284;20724
283;20726
282;20728
282;20730
282;20732
281;20734
281;20736
281;20738
281;20740
280;20742
280;20744
280;20746
280;20748
280;20750
280;20752
280;20754
280;20756
280;20758
280;20760
280;20762
280;20764
280;20766
280;20768
280;20770
280;20772
280;20774
281;20776
281;20779
281;20781
281;20783
282;20785
282;20787
282;20789
282;20791
283;20793
283;20795
284;20797
284;20799
284;20801
284;20803
285;20805
285;20807
286;20809
286;20811
287;20813
287;20815
288;20817
288;20819
289;20822
289;20824
290;20826
290;20828
291;20830
292;20832
292;20834
293;20836
294;20838
294;20840
295;20842
296;20844
297;20846
298;20848
299;20850
299;20852
300;20854
302;20856
302;20858
303;20860
304;20862
304;20864
305;20866
306;20868
307;20870
308;20872
309;20874
310;20876
310;20878
311;20880
312;20882
313;20884
313;20886
314;20888
314;20890
315;20892
316;20894
316;20896
316;20898
316;20900
316;20902
316;20904
316;20907
316;20909
315;20911
315;20913
314;20915
313;20917
313;20919
312;20921
311;20923
311;20925
310;20927
308;20929
308;20931
307;20933
305;20935
305;20937
304;20939
303;20941
302;20943
301;20945
300;20947
299;20950
298;20952
297;20954
296;20956
295;20958
295;20960
294;20962
293;20964
293;20966
292;20968
291;20970
291;20972
290;20974
289;20976
289;20978
288;20980
288;20982
288;20984
287;20986
287;20988
287;20990
287;20992
286;20994
286;20996
286;20998
285;21000
285;21002
285;21004
285;21006
285;21008
285;21010
284;21012
284;21014
285;21016
284;21018
284;21020
284;21022
284;21024
284;21026
284;21028
284;21030
284;21032
284;21035
284;21037
284;21039
284;21041
285;21043
285;21045
285;21047
285;21049
285;21051
285;21053
285;21055
285;21057
285;21059
285;21061
286;21063
286;21065
286;21067
286;21069
286;21071
286;21073
286;21075
286;21078
286;21080
286;21082
286;21084
287;21086
286;21088
286;21090
287;21092
287;21094
287;21096
287;21098
287;21100
287;21102
287;21104
287;21106
287;21108
288;21110
287;21112
287;21114
288;21116
288;21118
287;21120
288;21122
288;21124
288;21126
288;21128
288;21130
288;21132
288;21134
288;21136
288;21138
288;21140
288;21142
289;21144
289;21146
289;21148
289;21150
289;21152
289;21154
289;21156
289;21158
289;21160
289;21163
289;21165
289;21167
289;21169
290;21171
289;21173
290;21175
290;21177
290;21179
290;21181
290;21183
290;21185
291;21187
291;21189
291;21191
291;21193
291;21195
291;21197
291;21199
291;21201
291;21203
291;21206
291;21208
291;21210
291;21212
291;21214
291;21216
291;21218
291;21220
292;21222
292;21224
292;21226
292;21228
292;21230
292;21232
292;21234
292;21236
292;21238
292;21240
292;21242
292;21244
292;21246
293;21248
292;21250
293;21252
293;21254
293;21256
293;21258
293;21260
293;21262
293;21264
293;21266
293;21268
293;21270
293;21272
293;21274
293;21276
294;21278
294;21280
294;21282
294;21284
294;21286
294;21288
294;21291
294;21293
294;21295
294;21297
294;21299
294;21301
294;21303
294;21305
294;21307
294;21309
294;21311
294;21313
294;21315
294;21317
294;21319
294;21321
294;21323
294;21325
294;21327
294;21329
294;21331
294;21334
295;21336
294;21338
295;21340
295;21342
295;21344
295;21346
295;21348
295;21350
295;21352
295;21354
295;21356
295;21358
295;21360
295;21362
295;21364
295;21366
295;21368
295;21370
295;21372
295;21374
295;21376
295;21378
295;21380
295;21382
295;21384
295;21386
295;21388
295;21390
295;21392
295;21394
295;21396
295;21398
295;21400
295;21402
295;21404
295;21406
296;21408
295;21410
296;21412
296;21414
296;21416
296;21419
296;21421
296;21423
297;21425
298;21427
298;21429
298;21431
299;21433
299;21435
300;21437
300;21439
300;21441
301;21443
301;21445
301;21447
302;21449
301;21451
301;21453
302;21455
302;21457
301;21459
302;21462
302;21464
302;21466
302;21468
301;21470
301;21472
301;21474
300;21476
300;21478
300;21480
299;21482
299;21484
299;21486
299;21488
298;21490
298;21492
298;21494
297;21496
297;21498
297;21500
296;21502
296;21504
297;21506
296;21508
296;21510
296;21512
295;21514
295;21516
295;21518
295;21520
294;21522
295;21524
294;21526
294;21528
294;21530
293;21532
294;21534
294;21536
293;21538
293;21540
294;21542
293;21544
293;21547
292;21549
291;21551
290;21553
289;21555
288;21557
287;21559
286;21561
286;21563
286;21565
287;21567
289;21569
291;21571
295;21573
300;21575
306;21577
313;21579
321;21581
329;21583
337;21585
344;21587
350;21590
356;21592
360;21594
362;21596
363;21598
363;21600
361;21602
359;21604
357;21606
353;21608
350;21610
347;21612
344;21614
342;21616
339;21618
336;21620
333;21622
331;21624
329;21626
326;21628
324;21630
323;21632
320;21634
318;21636
316;21638
314;21640
312;21642
310;21644
308;21646
306;21648
305;21650
303;21652
301;21654
300;21656
298;21658
297;21660
296;21662
295;21664
293;21666
292;21668
291;21670
290;21672
289;21675
288;21677
288;21679
287;21681
286;21683
286;21685
285;21687
285;21689
284;21691
284;21693
283;21695
283;21697
283;21699
282;21701
282;21703
282;21705
282;21707
282;21709
282;21711
282;21713
281;21715
281;21718
281;21720
281;21722
281;21724
282;21726
281;21728
281;21730
282;21732
282;21734
282;21736
282;21738
283;21740
283;21742
283;21744
283;21746
283;21748
284;21750
284;21752
284;21754
284;21756
284;21758
285;21760
285;21762
285;21764
286;21766
286;21768
287;21770
287;21772
287;21774
288;21776
288;21778
288;21780
289;21782
290;21784
290;21786
291;21788
292;21790
292;21792
293;21794
294;21796
294;21798
295;21800
296;21803
296;21805
297;21807
298;21809
299;21811
299;21813
301;21815
301;21817
302;21819
303;21821
304;21823
305;21825
306;21827
306;21829
307;21831
308;21833
309;21835
310;21837
311;21839
312;21841
313;21843
313;21846
314;21848
315;21850
316;21852
316;21854
317;21856
317;21858
318;21860
318;21862
319;21864
319;21866
319;21868
319;21870
319;21872
318;21874
318;21876
318;21878
317;21880
317;21882
317;21884
316;21886
315;21888
314;21890
313;21892
312;21894
311;21896
310;21898
309;21900
308;21902
307;21904
306;21906
305;21908
304;21910
303;21912
302;21914
300;21916
299;21918
299;21920
298;21922
296;21924
296;21926
295;21928
294;21931
293;21933
292;21935
291;21937
290;21939
290;21941
289;21943
289;21945
288;21947
288;21949
287;21951
287;21953
286;21955
286;21957
285;21959
285;21961
285;21963
284;21965
284;21967
284;21969
284;21971
284;21974
284;21976
283;21978
283;21980
283;21982
283;21984
283;21986
283;21988
283;21990
283;21992
283;21994
283;21996
283;21998
283;22000
283;22002
283;22004
283;22006
283;22008
283;22010
283;22012
284;22014
283;22016
284;22018
284;22020
284;22022
284;22024
284;22026
284;22028
285;22030
285;22032
285;22034
285;22036
285;22038
285;22040
285;22042
285;22044
286;22046
286;22048
286;22050
286;22052
286;22054
286;22056
286;22059
287;22061
286;22063
286;22065
287;22067
287;22069
287;22071
287;22073
287;22075
287;22077
287;22079
287;22081
287;22083
287;22085
288;22087
287;22089
287;22091
288;22093
288;22095
288;22097
288;22099
288;22102
288;22104
288;22106
288;22108
288;22110
288;22112
289;22114
288;22116
288;22118
289;22120
289;22122
289;22124
289;22126
289;22128
289;22130
289;22132
289;22134
289;22136
289;22138
289;22140
289;22142
289;22144
290;22146
290;22148
289;22150
290;22152
290;22154
289;22156
290;22158
290;22160
290;22162
290;22164
290;22166
290;22168
290;22170
290;22172
291;22174
290;22176
291;22178
291;22180
291;22182
291;22184
291;22187
291;22189
291;22191
291;22193
291;22195
291;22197
292;22199
292;22201
292;22203
292;22205
292;22207
292;22209
292;22211
292;22213
292;22215
292;22217
292;22219
293;22221
293;22223
293;22225
293;22227
294;22230
294;22232
294;22234
295;22236
295;22238
295;22240
295;22242
296;22244
296;22246
297;22248
298;22250
298;22252
298;22254
299;22256
299;22258
300;22260
300;22262
301;22264
301;22266
301;22268
301;22270
301;22272
301;22274
301;22276
301;22278
301;22280
301;22282
301;22284
301;22286
301;22288
301;22290
301;22292
300;22294
300;22296
300;22298
299;22300
299;22302
299;22304
298;22306
298;22308
298;22310
297;22312
297;22315
297;22317
297;22319
296;22321
296;22323
296;22325
296;22327
296;22329
295;22331
295;22333
295;22335
295;22337
295;22339
294;22341
294;22343
295;22345
294;22347
294;22349
295;22351
294;22353
294;22355
294;22358
294;22360
294;22362
294;22364
293;22366
293;22368
293;22370
292;22372
291;22374
290;22376
289;22378
288;22380
288;22382
288;22384
288;22386
289;22388
290;22390
292;22392
296;22394
301;22396
307;22398
309;22400
317;22402
324;22404
332;22406
339;22408
346;22410
352;22412
357;22414
360;22416
362;22418
362;22420
361;22422
360;22424
358;22426
355;22428
352;22430
349;22432
346;22434
343;22436
340;22438
338;22440
335;22443
333;22445
330;22447
328;22449
325;22451
323;22453
321;22455
319;22457
317;22459
315;22461
313;22463
311;22465
309;22467
308;22469
306;22471
305;22473
303;22475
301;22477
300;22479
299;22481
298;22483
297;22486
296;22488
294;22490
293;22492
292;22494
291;22496
290;22498
290;22500
289;22502
288;22504
288;22506
287;22508
287;22510
286;22512
286;22514
285;22516
285;22518
285;22520
285;22522
284;22524
284;22526
284;22528
284;22530
284;22532
284;22534
283;22536
283;22538
284;22540
284;22542
284;22544
284;22546
284;22548
284;22550
284;22552
284;22554
284;22556
284;22558
284;22560
285;22562
285;22564
285;22566
285;22568
285;22571
285;22573
286;22575
286;22577
286;22579
287;22581
287;22583
288;22585
288;22587
288;22589
289;22591
289;22593
289;22595
290;22597
290;22599
290;22601
291;22603
292;22605
292;22607
293;22609
294;22611
294;22614
295;22616
295;22618
296;22620
297;22622
297;22624
298;22626
299;22628
300;22630
301;22632
301;22634
302;22636
303;22638
303;22640
304;22642
305;22644
306;22646
307;22648
308;22650
309;22652
309;22654
310;22656
311;22658
311;22660
312;22662
313;22664
314;22666
315;22668
315;22670
316;22672
316;22674
317;22676
318;22678
318;22680
318;22682
319;22684
319;22686
319;22688
319;22690
318;22692
318;22694
318;22696
317;22699
316;22701
316;22703
315;22705
314;22707
314;22709
313;22711
312;22713
311;22715
310;22717
309;22719
308;22721
307;22723
306;22725
305;22727
304;22729
303;22731
301;22733
301;22735
299;22737
298;22739
298;22742
297;22744
296;22746
295;22748
294;22750
294;22752
293;22754
292;22756
291;22758
291;22760
290;22762
290;22764
290;22766
289;22768
288;22770
288;22772
288;22774
287;22776
287;22778
287;22780
286;22782
286;22784
286;22786
286;22788
286;22790
286;22792
285;22794
285;22796
285;22798
285;22800
285;22802
285;22804
285;22806
285;22808
285;22810
285;22812
285;22814
285;22816
285;22818
285;22820
285;22822
285;22824
285;22827
286;22829
285;22831
285;22833
286;22835
286;22837
286;22839
286;22841
286;22843
286;22845
287;22847
286;22849
287;22851
287;22853
287;22855
287;22857
288;22859
287;22861
288;22863
288;22865
288;22867
288;22870
288;22872
288;22874
289;22876
289;22878
288;22880
289;22882
289;22884
289;22886
290;22888
290;22890
290;22892
290;22894
290;22896
290;22898
290;22900
290;22902
290;22904
291;22906
290;22908
290;22910
290;22912
291;22914
291;22916
291;22918
291;22920
291;22922
291;22924
291;22926
291;22928
291;22930
291;22932
292;22934
291;22936
292;22938
292;22940
292;22942
292;22944
292;22946
292;22948
292;22950
292;22952
292;22955
292;22957
293;22959
292;22961
293;22963
293;22965
293;22967
292;22969
293;22971
293;22973
293;22975
293;22977
293;22979
293;22981
293;22983
293;22985
293;22987
294;22989
293;22991
293;22993
293;22995
293;22998
293;23000
294;23002
294;23004
294;23006
294;23008
294;23010
294;23012
294;23014
294;23016
294;23018
294;23020
294;23022
294;23024
294;23026
294;23028
294;23030
294;23032
294;23034
294;23036
294;23038
294;23040
294;23042
294;23044
294;23046
295;23048
295;23050
295;23052
295;23054
295;23056
295;23058
295;23060
295;23062
295;23064
295;23066
295;23068
296;23070
295;23072
296;23074
296;23076
296;23078
296;23080
296;23083
296;23085
296;23087
296;23089
296;23091
296;23093
297;23095
296;23097
296;23099
297;23101
296;23103
296;23105
297;23107
297;23109
296;23111
297;23113
297;23115
297;23117
297;23119
297;23121
297;23123
297;23126
297;23128
297;23130
297;23132
297;23134
297;23136
297;23138
297;23140
298;23142
297;23144
298;23146
298;23148
298;23150
298;23152
298;23154
298;23156
298;23158
298;23160
298;23162
298;23164
298;23166
298;23168
298;23170
298;23172
